-55,-42,-59,-40,-62,-44,-63,-45,-60,-43,-64,-44,-60,-42,-60,-39,-58,-38,-56,-41,-59,-38,-58,-42,-61,-40,-63,-40,-64,-43,-59,-43,-59,-43,-61,-39,-55,-41,-50,-40,-46,-39,-38,-40,-35,-37,-33,-32,-34,-24,-28,-26,-29,-26,-24,-25,-24,-29,-22,-31,-23,-31,-18,-31,-20,-46,-26,-56,-32,-58,-43,-59,-46,-63,-57,-57,-56,-48,-64,-54,-62,-53,-62,-52,-64,-54,-68,-54,-67,-60,-68,-62,-72,-57,-62,-58,-52,-49,-36,-40,6,-34,70,-34,139,-39,172,-46,206,-98,199,-192,84,-293,-116,-365,-269,-416,-339,-456,-354,-523,-330,-525,-275,-471,-200,-399,-148,-327,-119,-248,-99,-184,-89,-130,-88,-94,-87,-76,-88,-64,-86,-62,-85,-64,-82,-64,-78,-56,-83,-50,-85,-50,-81,-52,-89,-54,-89,-55,-91,-54,-92,-52,-93,-53,-95,-54,-91,-48,-86,-47,-90,-50,-94,-51,-90,-50,-92,-42,-100,-42,-100,-51,-102,-46,-101,-48,-104,-53,-100,-55,-104,-48,-105,-51,-106,-52,-112,-57,-122,-56,-122,-58,-129,-55,-131,-65,-132,-63,-133,-69,-137,-68,-139,-70,-140,-73,-144,-76,-156,-80,-160,-80,-160,-89,-162,-84,-166,-92,-168,-96,-169,-97,-173,-94,-174,-97,-174,-97,-175,-105,-177,-110,-182,-106,-180,-111,-180,-110,-179,-112,-168,-111,-158,-111,-146,-111,-135,-109,-128,-104,-118,-101,-112,-106,-96,-98,-86,-93,-80,-90,-71,-82,-62,-78,-58,-75,-49,-67,-44,-60,-42,-56,-45,-57,-44,-56,-41,-57,-46,-56,-50,-60,-48,-60,-47,-62,-48,-63,-48,-58,-44,-56,-44,-60,-43,-64,-45,-59,-52,-59,-52,-54,-54,-61,-59,-61,-56,-58,-57,-61,-55,-56,-54,-62,-51,-62,-53,-64,-55,-64,-60,-64,-63,-61,-63,-64,-60,-58,-61,-62,-59,-60,-58,-63,-61,-64,-56,-62,-61,-64,-63,-64,-61,-61,-61,-59,-59,-61,-59,-65,-59,-66,-58,-66,-54,-64,-50,-66,-54,-66,-51,-62,-50,-60,-60,-48,-46,-40,1,-51,80,-71,148,-102,207,-135,182,-120,23,-128,-175,-188,-292,-266,-343,-334,-345,-374,-318,-381,-273,-369,-201,-338,-128,-286,-70,-232,-33,-174,-26,-132,-23,-96,-29,-66,-29,-48,-33,-42,-38,-38,-39,-38,-40,-40,-40,-43,-35,-41,-38,-42,-42,-46,-46,-51,-46,-58,-54,-64,-58,-63,-66,-67,-65,-69,-66,-71,-71,-70,-72,-66,-69,-70,-64,-75,-66,-74,-66,-77,-72,-78,-73,-82,-80,-78,-84,-80,-86,-82,-90,-83,-94,-84,-91,-90,-94,-92,-94,-90,-101,-92,-104,-92,-114,-96,-119,-98,-122,-100,-126,-101,-128,-104,-130,-107,-130,-113,-128,-110,-128,-113,-127,-114,-131,-121,-133,-115,-134,-120,-131,-125,-125,-124,-123,-130,-112,-128,-100,-133,-91,-128,-79,-129,-68,-129,-59,-127,-48,-120,-44,-119,-39,-114,-29,-108,-22,-102,-14,-93,-10,-80,-6,-74,-6,-69,-6,-62,-5,-58,-10,-57,-14,-51,-16,-54,-16,-51,-20,-39,-22,-38,-21,-46,-20,-40,-20,-43,-23,-46,-25,-37,-26,-35,-30,-35,-29,-38,-32,-36,-32,-36,-30,-40,-27,-44,-30,-43,-29,-39,-34,-45,-34,-45,-38,-43,-36,-46,-39,-49,-42,-46,-42,-47,-42,-49,-39,-46,-34,-44,-30,-44,-33,-42,-39,-41,-39,-43,-44,-46,-42,-51,-48,-52,-45,-54,-41,-50,-38,-54,-29,-50,-23,-48,-14,-42,1,-42,12,-37,18,-32,22,-22,28,-15,24,-20,12,-23,12,-31,7,-36,2,-45,-8,-44,-19,-43,-26,-40,-38,-44,-48,-43,-53,-45,-58,-51,-54,-55,-54,-59,-53,-63,-51,-62,-51,-68,-49,-64,-48,-61,-48,-66,-40,-61,-33,-59,-28,-48,2,-43,59,-44,132,-50,174,-61,209,-92,221,-178,143,-277,-48,-357,-222,-417,-309,-453,-329,-500,-317,-543,-269,-507,-200,-446,-143,-370,-102,-290,-82,-227,-72,-165,-66,-116,-60,-88,-66,-68,-60,-62,-61,-56,-60,-64,-57,-60,-56,-61,-56,-54,-52,-51,-51,-51,-51,-54,-60,-49,-64,-48,-66,-45,-64,-45,-61,-42,-67,-44,-60,-46,-59,-40,-60,-35,-56,-34,-62,-38,-67,-40,-72,-35,-74,-40,-79,-34,-83,-29,-84,-39,-82,-43,-82,-38,-88,-37,-82,-38,-86,-41,-95,-39,-99,-42,-104,-44,-106,-43,-108,-47,-113,-47,-114,-53,-117,-53,-118,-54,-123,-55,-128,-58,-135,-62,-140,-63,-144,-63,-143,-68,-140,-64,-149,-72,-142,-72,-141,-68,-141,-64,-138,-66,-136,-68,-138,-73,-132,-77,-131,-80,-122,-83,-110,-77,-98,-75,-81,-72,-70,-73,-60,-69,-46,-67,-39,-57,-28,-61,-20,-59,-18,-56,-10,-51,-6,-44,1,-38,3,-36,11,-36,13,-30,12,-33,16,-26,12,-23,7,-24,9,-26,6,-29,10,-29,7,-24,9,-24,12,-24,18,-25,17,-22,16,-23,11,-22,10,-21,5,-18,4,-28,4,-26,7,-27,7,-25,5,-27,9,-25,4,-31,7,-33,9,-32,2,-32,-3,-28,-4,-27,-3,-31,-1,-30,-2,-24,2,-30,8,-26,6,-30,7,-27,5,-31,3,-31,5,-30,6,-34,3,-35,0,-35,-2,-33,3,-36,6,-35,7,-35,3,-37,1,-40,1,-38,-4,-32,-2,-34,-3,-33,0,-36,-1,-37,1,-35,2,-33,4,-32,2,-36,0,-35,-1,-34
3,-27,0,-34,4,-37,1,-32,5,-33,7,-36,9,-32,12,-29,12,-34,9,-36,2,-38,4,-35,1,-32,3,-31,4,-34,2,-40,4,-34,10,-38,9,-35,5,-34,6,-37,5,-34,4,-32,3,-36,4,-41,8,-32,12,-34,9,-36,7,-31,5,-34,5,-33,4,-35,4,-35,2,-39,-2,-42,1,-39,3,-40,7,-38,7,-38,1,-38,6,-40,12,-42,8,-37,5,-40,9,-38,4,-38,3,-45,3,-41,7,-38,5,-41,11,-45,19,-39,24,-34,31,-34,38,-30,35,-19,34,-18,30,-21,34,-19,41,-23,46,-27,49,-29,51,-26,63,-32,52,-41,41,-39,36,-39,26,-46,12,-52,6,-47,4,-44,0,-43,-7,-45,-9,-43,-5,-47,0,-48,1,-45,4,-39,8,-40,24,-41,34,-27,68,-15,127,-6,205,-13,252,-22,299,-42,306,-83,210,-153,24,-219,-146,-284,-243,-322,-255,-358,-237,-380,-214,-372,-170,-341,-112,-290,-63,-237,-33,-193,-24,-142,-18,-96,-14,-67,-13,-53,-12,-51,-13,-45,-8,-43,-5,-37,-4,-34,-4,-34,-3,-30,-4,-28,-3,-21,-8,-25,-9,-23,-8,-25,-8,-28,0,-28,1,-23,-1,-24,0,-25,-2,-25,-6,-22,-13,-21,-16,-23,-22,-22,-24,-28,-18,-23,-17,-23,-18,-18,-25,-22,-25,-24,-25,-21,-22,-18,-28,-22,-40,-30,-49,-28,-52,-25,-55,-28,-61,-34,-61,-29,-63,-23,-59,-30,-62,-27,-63,-32,-71,-32,-79,-32,-83,-34,-85,-38,-87,-39,-89,-43,-93,-44,-87,-44,-86,-43,-85,-47,-86,-49,-87,-54,-80,-55,-68,-57,-66,-55,-55,-54,-50,-48,-43,-49,-29,-42,-15,-41,-5,-40,0,-32,3,-31,1,-27,0,-16,0,-8,10,1,14,3,19,3,25,2,21,6,22,1,20,3,15,5,15,8,18,8,20,3,21,4,19,10,19,6,21,7,22,1,21,5,22,5,21,7,17,8,12,8,15,5,13,6,13,8,14,7,18,8,20,7,19,9,23,10,18,8,11,10,7,11,10,10,9,10,10,12,11,14,10,7,9,12,10,16,10,12,9,9,7,15,10,16,3,14,3,19,8,18,18,19,30,24,34,27,47,43,87,44,155,44,225,31,265,15,267,-5,188,-53,0,-120,-184,-190,-272,-256,-286,-301,-265,-339,-229,-345,-169,-311,-111,-247,-65,-185,-38,-123,-23,-77,-8,-36,-5,-2,-2,13,-1,27,0,27,-1,31,2,35,-4,31,-2,36,-5,40,-4,36,-5,39,-4,46,-4,43,-5,46,-6,52,-6,48,-9,50,-10,49,-17,50,-15,53,-12,58,-18,53,-20,54,-20,53,-20,55,-23,56,-21,53,-23,55,-32,54,-38,52,-40,59,-50,57,-49,57,-56,56,-53,57,-57,54,-61,53,-70,49,-77,51,-81,48,-85,44,-95,43,-94,44,-95,47,-97,39,-96,36,-102,36,-103,39,-99,35,-101,32,-100,31,-91,29,-85,30,-77,28,-66,29,-60,25,-48,36,-40,39,-23,42,-16,41,-15,43,-9,45,-7,55,-2,58,-4,61,2,59,5,63,6,70,3,79,-1,78,-1,82,-8,81,-12,82,-19,81,-16,83,-18,84,-20,85,-17,83,-21,79,-23,81,-24,82,-24,80,-30,84,-32,81,-34,85,-36,83,-34,81,-37,83,-38,84,-36,77,-37,82,-43,82,-43,85,-44,78,-47,78,-45,79,-47,82,-55,80,-52,80,-48,81,-50,79,-48,77,-45,83,-53,83,-55,83,-55,84,-46,82,-39,88,-30,83,-14,93,-4,98,3,105,5,112,5,111,5,113,-4,105,-15,106,-24,103,-28,96,-34,99,-46,103,-55,100,-67,101,-75,104,-76,99,-81,88,-86,85,-89,79,-85,78,-87,81,-78,83,-58,86,-45,93,-19,104,34,107,96,102,137,93,156,72,172,-4,118,-100,-52,-175,-241,-243,-344,-291,-377,-334,-357,-363,-315,-363,-259,-313,-204,-238,-165,-162,-141,-87,-129,-24,-122,23,-118,58,-111,79,-109,89,-108,92,-109,96,-108,100,-108,97,-111,102,-110,100,-114,102,-116,107,-116,105,-120,106,-117,107,-116,108,-120,110,-124,111,-130,108,-128,109,-133,109,-134,108,-133,110,-139,107,-143,112,-140,112,-141,116,-140,113,-146,114,-145,115,-151,106,-158,107,-166,106,-167,106,-176,110,-178,110,-178,106,-182,99,-183,100,-189,100,-198,101,-208,104,-211,98,-211,97,-213,93,-217,97,-222,93,-225,91,-223,88,-229,91,-232,89,-234,88,-238,86,-234,83,-237,82,-236,79,-231,81,-229,79,-218,78,-207,78,-190,81,-179,80,-169,79,-165,79,-154,84,-145,86,-132,90,-127,92,-114,98,-104,105,-94,108,-87,113,-82,116,-84,121,-86,119,-88,127,-86,126,-83,125,-83,131,-89,131,-81,128,-84,134,-84,140,-85,139,-83,136,-87,138,-90,134,-89,132,-92,138,-86,137,-94,139,-89,138,-93,136,-92,136,-92,133,-93,141,-97,138,-99,133,-100,127,-104,131,-105,129,-105,134,-104,131,-104,129,-96,129,-100,124,-105,124,-106,124,-108,124,-109,120,-111,118,-111,121
-111,121,-109,121,-108,120,-108,126,-106,124,-108,123,-112,116,-116,123,-118,122,-119,116,-119,117,-114,121,-114,117,-115,121,-111,117,-114,119,-115,114,-119,116,-121,119,-124,115,-124,112,-124,114,-122,116,-120,116,-117,116,-117,118,-119,115,-121,114,-119,115,-118,118,-127,117,-121,117,-123,114,-123,115,-124,113,-116,113,-114,109,-121,109,-120,115,-123,115,-127,114,-128,111,-130,113,-128,110,-125,112,-125,112,-119,111,-122,113,-117,117,-122,107,-124,110,-130,113,-128,113,-126,111,-128,112,-131,111,-126,107,-124,107,-125,111,-123,113,-127,114,-126,119,-127,113,-132,115,-130,116,-133,111,-131,106,-129,106,-127,110,-123,114,-122,109,-128,112,-125,108,-130,105,-132,105,-133,105,-132,107,-130,103,-122,105,-112,105,-109,108,-100,115,-102,118,-102,122,-104,118,-101,120,-102,118,-99,117,-98,114,-98,110,-98,107,-102,98,-106,92,-114,92,-116,94,-126,90,-130,94,-135,100,-139,101,-145,105,-144,105,-141,103,-140,99,-140,98,-138,97,-133,96,-127,98,-116,102,-95,117,-39,124,32,112,88,111,119,96,144,31,124,-71,-20,-165,-210,-236,-348,-281,-405,-338,-413,-387,-379,-388,-326,-327,-265,-249,-214,-176,-188,-95,-174,-30,-159,17,-154,55,-159,76,-160,88,-160,89,-158,89,-158,92,-152,99,-149,97,-147,99,-150,99,-154,104,-153,103,-157,103,-161,105,-160,106,-158,103,-163,109,-162,107,-157,107,-158,105,-160,104,-158,103,-163,101,-163,105,-167,104,-172,105,-169,109,-175,106,-173,96,-175,98,-172,101,-169,99,-178,100,-185,99,-194,94,-195,93,-199,90,-201,93,-208,89,-212,87,-207,86,-212,83,-214,83,-217,81,-221,78,-227,74,-230,74,-231,68,-238,74,-238,67,-243,59,-242,60,-242,58,-245,54,-246,51,-248,44,-247,46,-243,40,-237,44,-233,38,-225,42,-212,42,-202,45,-193,49,-186,53,-171,52,-159,58,-146,62,-133,61,-128,64,-128,67,-118,74,-111,75,-108,86,-107,91,-104,95,-101,97,-108,94,-110,92,-112,93,-116,95,-115,90,-115,91,-109,91,-106,89,-110,89,-109,91,-108,88,-112,88,-113,86,-116,85,-116,87,-113,86,-113,84,-115,86,-114,89,-117,84,-116,88,-114,81,-118,78,-123,83,-125,79,-124,79,-124,77,-121,78,-118,76,-116,76,-116,75,-118,75,-119,74,-122,68,-124,67,-122,69,-120,68,-121,67,-120,67,-116,63,-115,63,-110,72,-109,67,-115,71,-121,83,-109,90,-66,80,11,62,85,32,142,-1,113,4,-65,12,-252,-36,-360,-110,-404,-187,-403,-229,-385,-236,-353,-231,-299,-204,-228,-163,-163,-116,-126,-63,-109,-19,-107,12,-101,42,-101,68,-104,70,-102,73,-99,73,-105,79,-104,79,-98,75,-100,76,-104,72,-103,67,-104,62,-109,54,-114,58,-119,53,-122,47,-120,42,-123,42,-121,39,-123,38,-125,33,-123,35,-128,26,-131,25,-132,17,-136,17,-136,22,-142,20,-146,19,-147,17,-146,15,-150,17,-154,14,-154,14,-160,8,-165,11,-172,7,-182,9,-185,-1,-185,-3,-183,-2,-182,-8,-181,-12,-185,-14,-188,-19,-193,-24,-196,-25,-192,-24,-192,-27,-187,-29,-181,-37,-172,-43,-165,-47,-156,-40,-148,-40,-135,-41,-127,-43,-118,-42,-105,-44,-101,-34,-93,-27,-89,-21,-80,-13,-75,-6,-69,-3,-71,5,-70,7,-76,12,-76,16,-81,22,-85,23,-87,25,-88,25,-88,28,-88,23,-89,25,-86,28,-88,29,-97,29,-100,25,-97,27,-100,24,-101,26,-98,23,-98,21,-96,23,-97,23,-96,26,-98,22,-100,22,-101,18,-101,14,-106,16,-104,14,-110,12,-104,15,-97,9,-99,8,-102,12,-98,13,-102,8,-101,15,-106,10,-106,12,-104,13,-104,11,-97,10,-91,6,-85,9,-76,4,-60,9,-48,12,-40,17,-36,25,-32,34,-34,35,-42,30,-43,21,-47,19,-57,15,-63,11,-73,13,-87,12,-99,7,-107,7,-112,4,-116,0,-112,-9,-114,-12,-112,-15,-107,-13,-107,-15,-106,-20,-110,-21,-106,-20,-96,-17,-89,-8,-73,4,-25,7,45,-9,107,-15,144,-27,169,-82,141,-185,-5,-278,-202,-359,-333,-416,-388,-471,-388,-518,-345,-516,-283,-457,-214,-375,-165,-288,-144,-210,-131,-141,-128,-91,-128,-59,-128,-44,-124,-32,-121,-27,-122,-23,-118,-23,-114,-21,-112,-16,-112,-17,-114,-19,-112,-15,-112,-12,-116,-11,-122,-6,-118,-11,-117,-9,-117,-8,-117,-8,-112,-5,-117,-8,-122,-6,-124,-7,-127,-6,-133,-10,-137,-4,-133,-9,-133,-11,-137,-13,-134,-12,-133,-15,-137,-11,-141,-15,-145,-18,-151,-21,-159,-17,-159,-20,-165,-26,-168,-26,-173,-25,-169,-29,-170,-33,-177,-35,-177,-36,-184,-38,-195,-36,-198,-48,-200,-43,-200,-47,-206,-51,-204,-58,-204,-60,-206,-64,-198,-62,-201,-60,-201,-61,-201,-64,-198,-70,-191,-71,-180,-72,-170,-70,-160,-69,-143,-62,-134,-63,-116,-58,-108,-64,-100,-57,-94,-55,-87,-52,-82,-48,-77,-44,-71,-40,-65,-36,-60,-31,-53,-22,-53,-23,-52,-29
-54,-23,-56,-22,-56,-21,-59,-23,-58,-19,-56,-17,-59,-19,-55,-22,-54,-24,-50,-24,-53,-27,-55,-25,-60,-27,-61,-23,-61,-25,-58,-26,-62,-31,-55,-30,-56,-28,-57,-30,-61,-35,-59,-34,-67,-38,-69,-36,-61,-37,-66,-38,-66,-38,-62,-39,-63,-40,-61,-38,-63,-42,-63,-41,-64,-45,-65,-45,-66,-44,-68,-44,-66,-48,-67,-42,-68,-44,-68,-45,-61,-43,-59,-47,-61,-42,-61,-43,-62,-47,-69,-47,-67,-48,-68,-52,-66,-53,-70,-50,-67,-52,-64,-47,-61,-54,-60,-48,-63,-49,-64,-52,-66,-54,-66,-56,-68,-56,-63,-58,-62,-52,-65,-60,-62,-57,-64,-54,-61,-54,-61,-55,-62,-56,-64,-58,-66,-56,-60,-60,-64,-61,-66,-55,-64,-60,-66,-59,-59,-59,-56,-60,-58,-63,-59,-64,-62,-60,-64,-61,-64,-66,-63,-64,-65,-67,-64,-67,-64,-65,-61,-62,-58,-65,-59,-60,-58,-63,-62,-64,-62,-64,-62,-64,-64,-62,-61,-63,-59,-61,-56,-63,-55,-66,-50,-58,-53,-69,-53,-71,-52,-67,-53,-68,-58,-67,-54,-70,-50,-72,-51,-72,-48,-70,-47,-69,-42,-71,-40,-73,-32,-72,-31,-72,-27,-67,-26,-64,-27,-56,-25,-56,-17,-53,-11,-57,0,-58,6,-63,5,-64,8,-59,6,-70,-7,-71,-16,-80,-22,-85,-28,-83,-37,-76,-43,-77,-40,-81,-41,-75,-45,-77,-45,-85,-49,-87,-46,-87,-46,-88,-48,-86,-41,-88,-26,-76,-14,-65,23,-55,88,-55,155,-64,196,-72,233,-93,253,-167,198,-256,24,-342,-158,-415,-273,-458,-307,-497,-291,-521,-252,-506,-196,-460,-143,-402,-100,-332,-80,-254,-70,-191,-59,-136,-56,-114,-55,-98,-49,-89,-48,-85,-45,-82,-48,-83,-44,-79,-39,-78,-44,-79,-49,-76,-49,-75,-52,-71,-52,-68,-52,-67,-48,-71,-45,-77,-40,-69,-44,-75,-44,-74,-46,-69,-50,-77,-55,-75,-57,-71,-56,-80,-54,-73,-52,-74,-50,-73,-51,-68,-54,-72,-55,-68,-58,-76,-67,-79,-70,-80,-69,-79,-72,-84,-72,-82,-72,-80,-71,-79,-73,-82,-72,-86,-81,-89,-88,-91,-98,-93,-96,-95,-100,-101,-102,-104,-105,-104,-101,-109,-101,-107,-103,-104,-101,-110,-102,-115,-108,-116,-109,-125,-103,-119,-108,-123,-110,-128,-111,-128,-106,-131,-100,-137,-92,-132,-83,-135,-75,-136,-72,-134,-66,-136,-57,-135,-49,-136,-42,-133,-34,-129,-22,-120,-10,-115,1,-115,7,-105,12,-104,17,-96,16,-90,15,-81,20,-76,22,-71,24,-72,27,-69,29,-66,31,-61,27,-58,29,-57,25,-61,24,-63,19,-59,22,-58,21,-60,21,-62,20,-62,16,-61,17,-60,25,-61,26,-62,19,-63,21,-60,20,-61,16,-62,18,-66,18,-64,20,-64,25,-69,20,-68,19,-67,20,-66,18,-62,11,-68,13,-69,11,-69,10,-69,12,-71,11,-75,15,-67,15,-70,19,-69,20,-70,18,-75,16,-75,9,-74,10,-74,13,-76,17,-71,14,-76,22,-78,22,-76,22,-71,21,-69,20,-74,17,-76,16,-77,15,-75,15,-78,16,-74,15,-75,16,-73,22,-71,21,-70,18,-70,22,-74,20,-71,14,-76,14,-76,19,-76,16,-79,19,-80,19,-79,18,-79,16,-82,18,-79,24,-79,20,-79,20,-77,19,-77,12,-79,14,-83,13,-80,19,-79,22,-71,22,-79,23,-78,25,-80,29,-74,33,-73,35,-72,36,-69,38,-65,45,-64,47,-65,55,-58,60,-60,54,-63,51,-71,56,-78,49,-88,35,-90,31,-93,24,-95,21,-94,23,-93,21,-84,13,-84,13,-85,7,-84,8,-86,6,-92,9,-98,10,-93,15,-90,24,-84,38,-77,64,-66,111,-52,182,-48,254,-59,295,-72,323,-96,286,-149,133,-224,-64,-294,-197,-347,-247,-380,-235,-410,-206,-420,-174,-406,-123,-358,-80,-310,-50,-271,-31,-215,-26,-166,-12,-133,-7,-110,-2,-95,1,-89,5,-82,4,-75,3,-73,4,-79,2,-72,4,-72,1,-72,-1,-68,-3,-74,2,-78,9,-76,6,-74,4,-78,1,-76,-3,-77,-8,-77,-12,-75,-9,-68,-16,-75,-15,-74,-17,-74,-14,-74,-16,-73,-22,-72,-16,-74,-23,-74,-29,-76,-38,-82,-35,-83,-38,-80,-42,-78,-48,-83,-52,-80,-59,-83,-62,-92,-69,-87,-72,-97,-84,-96,-86,-101,-90,-100,-99,-105,-104,-111,-108,-110,-107,-118,-103,-119,-111,-119,-115,-118,-118,-121,-123,-123,-125,-124,-124,-128,-128,-130,-124,-130,-114,-131,-106,-133,-95,-137,-87,-142,-83,-139,-73,-132,-62,-131,-53,-130,-47,-128,-39,-127,-30,-119,-17,-118,-10,-109,-1,-101,2,-95,4,-92,7,-87,16,-82,18,-75,16,-76,18,-74,17,-69,22,-66,31,-63,33,-60,37,-58,33,-53,31,-54,31,-60,27,-61,30,-57,30,-60,26,-60,32,-58,34,-55,31,-54,30,-57,27,-56,29,-56,25,-54,21,-48,25,-53,20,-50,20,-57,19,-53,23,-55,26,-52,22,-56,20,-53,15,-52,14,-47,14,-51,12,-58,11,-56,17,-59,14,-62,13,-62,19,-63,17,-66,12,-66,11,-64,7,-59,3,-57,6,-59,8,-61,7,-65,7,-66,10,-62,10,-65,11,-60,9,-62,6,-62,6,-60
6,-62,8,-61,8,-63,4,-61,7,-60,7,-60,5,-62,2,-62,4,-62,2,-59,3,-61,2,-62,-3,-65,-1,-63,1,-62,-2,-64,3,-64,3,-63,3,-65,1,-63,3,-61,-4,-56,-3,-61,0,-58,0,-59,-2,-63,2,-56,6,-52,6,-58,3,-50,7,-51,7,-54,15,-50,16,-49,18,-42,17,-38,28,-33,35,-37,35,-36,35,-37,32,-35,31,-39,33,-46,28,-58,21,-56,18,-67,11,-63,3,-60,4,-62,5,-54,4,-51,-4,-52,-9,-58,-13,-53,-17,-55,-13,-63,-10,-67,-11,-62,-6,-65,12,-56,31,-45,66,-35,125,-37,188,-35,227,-43,249,-73,249,-137,151,-215,-39,-285,-202,-339,-279,-385,-288,-418,-263,-441,-226,-428,-170,-384,-114,-322,-72,-262,-55,-204,-43,-152,-32,-110,-24,-84,-22,-71,-21,-56,-17,-55,-18,-50,-16,-52,-13,-52,-14,-51,-20,-47,-25,-47,-25,-48,-25,-43,-26,-44,-21,-40,-23,-41,-20,-43,-22,-44,-26,-46,-27,-48,-31,-41,-37,-41,-37,-43,-36,-45,-39,-45,-37,-41,-40,-42,-42,-48,-42,-43,-52,-41,-54,-37,-58,-43,-62,-45,-64,-45,-70,-43,-77,-46,-77,-49,-81,-49,-87,-49,-92,-50,-100,-53,-107,-55,-111,-60,-117,-58,-120,-63,-126,-69,-130,-68,-136,-69,-137,-73,-146,-76,-151,-77,-152,-88,-157,-88,-164,-91,-163,-92,-164,-96,-163,-96,-158,-104,-158,-106,-146,-112,-140,-111,-134,-110,-122,-111,-119,-111,-108,-113,-95,-112,-83,-107,-72,-101,-67,-97,-55,-90,-41,-83,-31,-80,-25,-75,-19,-69,-17,-62,-11,-56,-13,-54,-11,-51,-4,-42,0,-40,0,-36,2,-37,5,-30,8,-26,1,-27,1,-28,0,-27,-2,-30,-1,-27,-1,-27,0,-27,1,-24,7,-23,7,-21,3,-18,2,-19,0,-23,-1,-24,-2,-23,-7,-24,-4,-28,-5,-32,-8,-32,-3,-31,-4,-33,-5,-25,-5,-31,-8,-26,-9,-26,-12,-23,-14,-30,-12,-32,-13,-31,-16,-29,-8,-32,-6,-37,-9,-32,-8,-35,-10,-33,-11,-34,-15,-36,-16,-35,-17,-32,-18,-33,-13,-34,-10,-32,-10,-35,-8,-31,-9,-30,-15,-30,-18,-34,-23,-31,-20,-34,-19,-32,-17,-37,-18,-37,-17,-34,-14,-34,-12,-35,-13,-34,-15,-33,-17,-38,-21,-36,-18,-36,-19,-37,-17,-38,-18,-33,-15,-37,-15,-34,-15,-39,-14,-35,-17,-31,-17,-29,-17,-31,-20,-32,-21,-29,-22,-34,-18,-36,-15,-32,-16,-30,-10,-35,-10,-33,-8,-36,-5,-35,-4,-32,5,-20,5,-14,7,-18,11,-13,17,-13,17,-9,17,-17,6,-16,7,-21,13,-25,4,-41,0,-43,-6,-48,-12,-43,-19,-46,-20,-38,-20,-37,-24,-33,-29,-36,-32,-34,-37,-35,-38,-33,-38,-38,-38,-41,-32,-37,-20,-39,-9,-25,23,-14,78,-10,146,-19,198,-23,222,-38,246,-108,213,-207,68,-301,-126,-368,-260,-405,-310,-444,-301,-480,-264,-480,-212,-443,-155,-383,-111,-307,-86,-230,-70,-161,-62,-109,-54,-78,-54,-51,-50,-42,-52,-39,-47,-34,-47,-34,-49,-35,-52,-32,-52,-28,-55,-30,-52,-32,-59,-29,-56,-22,-58,-28,-56,-22,-58,-20,-57,-20,-57,-20,-61,-20,-61,-21,-64,-20,-71,-18,-71,-16,-72,-14,-74,-15,-76,-12,-76,-12,-75,-12,-74,-14,-76,-18,-80,-17,-89,-14,-90,-20,-98,-16,-103,-20,-109,-24,-112,-29,-114,-31,-114,-32,-121,-32,-126,-36,-133,-38,-143,-42,-149,-40,-160,-41,-162,-49,-166,-46,-169,-55,-170,-56,-178,-58,-182,-63,-184,-61,-184,-66,-192,-69,-194,-70,-195,-70,-198,-73,-199,-72,-189,-76,-178,-76,-168,-78,-163,-78,-155,-79,-143,-76,-137,-77,-128,-74,-118,-70,-100,-66,-88,-62,-76,-59,-62,-54,-53,-50,-46,-43,-39,-39,-41,-31,-44,-24,-36,-25,-36,-21,-35,-16,-32,-15,-29,-13,-23,-6,-22,-6,-25,-7,-27,3,-30,0,-32,-5,-32,-3,-32,-7,-28,-6,-34,-3,-35,1,-29,-1,-29,-1,-30,-7,-31,-7,-32,-4,-32,-8,-36,-8,-41,-6,-38,-5,-38,-10,-38,-8,-35,-5,-33,-11,-35,-5,-35,-7,-40,-11,-37,-8,-40,-12,-40,-16,-40,-12,-41,-8,-42,-11,-41,-10,-42,-11,-40,-12,-42,-16,-45,-13,-45,-8,-50,-14,-51,-15,-43,-15,-44,-16,-46,-17,-40,-16,-44,-14,-42,-14,-42,-18,-42,-14,-49,-16,-46,-16,-45,-19,-48,-14,-44,-17,-44,-16,-40,-14,-43,-15,-44,-16,-46,-16,-43,-20,-44,-19,-50,-16,-51,-16,-48,-14,-46,-11,-44,-16,-42,-16,-42,-16,-46,-17,-46,-22,-46,-19,-48,-15,-49,-15,-44,-12,-47,-16,-44,-18,-40,-16,-34,-10,-27,-9,-17,-2,-16,4,-20,4,-14,4,-18,5,-15,2,-12,7,-16,7,-16,2,-8,0,-7,-8,-14,-20,-14,-25,-22,-25,-32,-25,-36,-25,-44,-16,-51,-16,-52,-16,-54,-20,-56,-16,-51,-19,-50,-16,-46,-18,-46,-24,-42,-16,-31,-9,-18,0,13,4,76,6,146,-2,190,-7,223,-31,241,-113,168,-218,-19,-292,-194,-351,-300,-392,-319,-431,-304,-454,-261,-433,-198,-384,-143,-316,-107,-242,-81,-164,-70,-105,-63,-64,-64,-30,-65,-21,-65,-13
-65,-9,-65,0,-60,-6,-56,-4,-56,1,-54,-3,-58,0,-59,4,-62,8,-64,4,-64,6,-71,4,-74,9,-73,8,-68,3,-66,7,-66,4,-67,2,-71,3,-73,10,-78,5,-77,9,-78,14,-76,13,-82,10,-85,8,-88,4,-90,1,-90,1,-93,1,-97,-2,-108,-4,-113,0,-119,-3,-124,-3,-132,-7,-132,-9,-132,-8,-134,-7,-143,-12,-150,-14,-156,-16,-165,-20,-171,-22,-174,-26,-180,-32,-180,-36,-181,-41,-180,-38,-186,-39,-186,-40,-188,-42,-192,-44,-188,-48,-182,-51,-177,-52,-170,-55,-160,-58,-146,-56,-132,-60,-117,-54,-105,-57,-96,-53,-84,-49,-75,-47,-68,-38,-59,-32,-49,-29,-41,-20,-38,-15,-30,-18,-25,-7,-26,-6,-21,2,-20,1,-20,4,-21,8,-24,8,-26,8,-26,12,-23,8,-24,13,-19,12,-18,13,-18,12,-18,14,-24,9,-27,13,-28,13,-28,9,-26,12,-26,16,-28,16,-28,12,-24,13,-28,10,-27,6,-30,7,-29,8,-32,7,-34,8,-35,6,-38,4,-38,3,-34,4,-32,3,-34,3,-35,2,-36,-2,-39,2,-41,0,-46,0,-40,-2,-41,-4,-41,1,-42,-1,-39,-1,-38,-5,-34,0,-38,-4,-43,-5,-44,-4,-41,-3,-42,-4,-40,-2,-39,-2,-37,-2,-39,1,-37,-4,-35,-6,-45,-2,-41,-1,-42,-7,-43,-4,-46,-4,-46,-11,-45,-10,-40,-5,-39,-7,-35,-3,-36,-8,-33,-4,-32,-5,-38,-6,-38,-7,-42,-12,-42,-13,-42,-8,-37,-4,-36,-11,-36,-7,-34,-6,-32,-10,-32,-9,-26,-8,-27,-5,-19,0,-12,8,-11,14,-8,13,-6,16,-1,17,2,15,-3,12,-7,10,-5,2,-8,-9,-17,-15,-24,-18,-24,-16,-21,-21,-24,-13,-30,-10,-33,-9,-36,-10,-44,-11,-50,-8,-49,-11,-49,-11,-46,-11,-45,-14,-35,-16,-21,-9,-10,7,18,15,75,18,140,11,190,5,226,-16,245,-85,188,-167,6,-247,-177,-309,-293,-359,-324,-402,-310,-433,-274,-425,-217,-374,-161,-312,-116,-242,-93,-176,-78,-110,-62,-60,-60,-33,-55,-16,-49,-2,-44,-1,-42,0,-44,3,-50,6,-52,12,-55,10,-48,13,-55,12,-56,15,-52,18,-52,19,-54,15,-51,19,-55,25,-56,26,-58,24,-55,27,-55,29,-59,30,-61,28,-61,25,-60,27,-64,24,-57,25,-56,21,-64,17,-73,17,-76,17,-83,20,-80,16,-83,15,-88,13,-89,17,-94,17,-103,13,-104,11,-109,6,-117,5,-128,7,-133,2,-140,0,-144,0,-149,-5,-144,-9,-145,-7,-150,-8,-157,-12,-159,-19,-168,-23,-167,-20,-165,-25,-168,-30,-167,-37,-154,-29,-139,-29,-128,-32,-124,-32,-111,-28,-102,-20,-89,-18,-83,-19,-66,-20,-61,-16,-55,-12,-49,-8,-36,0,-28,2,-19,5,-14,10,-18,21,-16,18,-15,13,-19,17,-28,17,-22,17,-23,17,-18,15,-16,8,-20,11,-23,7,-21,11,-20,7,-27,12,-24,12,-24,9,-31,9,-32,6,-32,10,-26,13,-24,13,-27,9,-25,8,-29,15,-30,13,-33,13,-35,16,-35,6,-34,7,-35,1,-31,7,-32,1,-34,3,-32,5,-35,5,-34,2,-42,3,-39,-2,-37,3,-32,3,-34,1,-35,4,-29,1,-20,5,-11,12,-1,24,39,32,104,25,177,15,227,6,266,-31,254,-102,123,-174,-80,-238,-240,-301,-304,-342,-287,-381,-253,-390,-196,-368,-132,-305,-78,-219,-45,-153,-26,-95,-16,-47,-12,-14,-21,4,-18,21,-27,29,-24,32,-21,31,-20,27,-19,30,-22,32,-19,36,-19,34,-23,31,-29,34,-27,32,-30,24,-40,21,-48,15,-50,13,-49,10,-47,14,-49,16,-52,10,-48,4,-45,3,-44,1,-46,8,-56,12,-60,10,-62,7,-69,6,-70,3,-74,2,-78,6,-78,6,-81,8,-78,5,-88,1,-87,5,-95,4,-105,0,-113,-3,-117,1,-116,0,-118,-2,-124,-4,-124,-10,-123,-9,-122,-7,-132,-12,-133,-15,-126,-14,-122,-13,-110,-14,-96,-16,-84,-13,-62,-4,-45,0,-35,0,-18,1,-6,4,-9,9,-6,10,2,14,7,13,7,17,12,27,15,29,14,26,18,34,18,40,13,39,8,44,1,35,-4,25,-10,30,-12,24,-11,23,-17,23,-17,20,-21,24,-20,24,-24,19,-32,21,-36,18,-34,18,-37,15,-37,9,-37,11,-36,9,-36,5,-40,5,-42,5,-44,3,-43,6,-43,6,-46,5,-50,1,-52,8,-48,2,-50,6,-47,6,-46,7,-51,7,-57,7,-62,5,-64,6,-66,7,-64,6,-60,4,-57,0,-51,6,-43,12,-37,20,-32,23,-23,28,-2,31,15,37,47,53,105,62,180,59,232,51,268,32,271,-14,178,-89,-19,-162,-198,-229,-287,-277,-303,-323,-279,-362,-234,-356,-171,-313,-116,-247,-79,-180,-60,-126,-49,-81,-41,-39,-34,-16,-38,0,-38,2,-41,8,-45,8,-46,9,-46,15,-48,8,-43,10,-43,8,-42,13,-48,11,-47,15,-49,11,-52,11,-53,11,-55,16,-56,16,-54,15,-54,17,-55,20,-56,20,-58,16,-66,23,-71,16
-77,15,-83,16,-92,20,-96,20,-101,19,-104,12,-115,11,-119,12,-124,13,-126,12,-132,8,-136,13,-129,10,-124,15,-121,14,-118,20,-116,21,-114,29,-120,34,-123,28,-118,21,-123,14,-118,8,-115,15,-104,22,-107,25,-104,29,-98,29,-86,27,-78,23,-70,11,-70,8,-64,12,-53,6,-43,0,-38,4,-37,3,-31,11,-26,10,-15,6,-11,6,-10,9,-7,12,-10,15,-9,22,-12,15,-14,16,-14,21,-16,21,-11,21,-10,22,-12,20,-14,22,-15,24,-19,25,-20,24,-25,20,-25,21,-24,20,-24,22,-28,17,-28,12,-35,13,-37,18,-42,10,-45,17,-51,11,-55,9,-59,9,-60,8,-55,3,-50,11,-53,11,-53,9,-53,18,-50,16,-38,18,-25,17,-12,23,14,26,55,27,102,19,146,9,182,-22,212,-122,165,-238,-8,-323,-207,-376,-318,-414,-334,-472,-285,-490,-199,-466,-126,-396,-80,-295,-52,-189,-38,-115,-26,-61,-32,-18,-35,4,-40,9,-34,9,-36,13,-38,14,-39,13,-37,14,-35,17,-32,16,-35,15,-34,16,-36,13,-42,19,-48,17,-44,18,-47,16,-45,20,-45,22,-48,23,-47,23,-52,24,-57,25,-67,22,-70,23,-78,30,-89,31,-95,28,-98,29,-101,29,-100,27,-102,28,-105,26,-107,28,-114,28,-120,33,-125,33,-128,32,-128,33,-127,31,-116,27,-109,27,-112,34,-119,36,-119,42,-126,42,-127,43,-128,39,-131,38,-133,34,-133,31,-128,28,-120,34,-112,23,-102,21,-96,27,-89,33,-82,30,-72,25,-57,24,-48,22,-36,24,-27,28,-20,27,-13,33,-12,30,-7,30,-8,32,-13,30,-10,32,-14,31,-17,32,-23,30,-13,29,-15,28,-16,29,-17,29,-25,30,-23,27,-24,26,-29,28,-21,31,-6,28,17,30,46,39,98,50,147,33,198,16,236,2,269,-70,199,-183,-13,-271,-220,-349,-295,-407,-294,-442,-259,-465,-191,-457,-118,-398,-64,-303,-40,-198,-22,-104,-18,-37,-15,4,-16,30,-19,43,-21,49,-19,44,-18,38,-19,38,-19,38,-15,36,-12,36,-22,42,-29,43,-32,39,-38,41,-39,37,-37,36,-33,37,-34,33,-32,32,-38,30,-42,30,-41,33,-47,37,-52,35,-55,28,-52,34,-58,32,-54,36,-59,33,-65,37,-71,31,-72,28,-84,28,-97,26,-105,22,-107,24,-112,21,-111,23,-112,20,-115,24,-116,16,-115,20,-116,19,-114,21,-116,21,-113,27,-107,35,-102,43,-88,42,-81,35,-65,40,-58,41,-49,43,-40,47,-29,41,-17,46,-7,49,10,54,17,60,16,63,17,68,22,73,22,72,22,66,18,65,11,60,7,57,3,56,2,52,-4,46,-2,50,-6,51,-12,43,-10,40,-12,32,-12,28,-18,29,-17,33,-15,30,-23,28,-28,34,-24,28,-31,28,-29,27,-26,20,-22,24,-22,23,-22,26,-24,28,-25,23,-30,27,-24,24,-29,24,-28,18,-30,19,-28,17,-22,22,-20,21,-22,24,-9,33,35,27,101,15,150,-5,181,-33,175,-93,60,-179,-142,-269,-299,-340,-371,-405,-362,-454,-315,-477,-235,-441,-157,-386,-96,-296,-65,-205,-41,-132,-24,-67,-20,-22,-22,15,-21,43,-22,49,-24,48,-25,38,-31,43,-32,42,-35,43,-36,36,-35,40,-35,41,-35,40,-36,39,-38,39,-40,37,-42,38,-50,36,-51,34,-51,36,-55,34,-52,36,-52,35,-55,41,-56,48,-59,39,-64,40,-69,42,-70,38,-72,40,-76,39,-76,39,-85,38,-88,37,-86,32,-88,34,-90,34,-94,30,-95,30,-101,32,-100,30,-103,27,-103,24,-102,24,-101,26,-102,29,-99,28,-97,24,-94,26,-93,19,-100,20,-97,16,-91,15,-85,9,-79,10,-69,16,-52,16,-34,26,-16,30,-6,30,1,31,3,31,3,29,3,35,2,39,5,41,6,48,4,50,3,57,2,58,-2,61,-6,56,-12,54,-21,56,-21,47,-28,47,-29,46,-28,47,-32,45,-28,43,-32,43,-34,39,-41,43,-37,42,-46,40,-44,33,-48,35,-47,36,-45,35,-45,33,-43,28,-38,27,-44,23,-44,25,-45,29,-54,28,-58,29,-61,30,-61,25,-46,33,0,29,67,3,120,-14,163,-42,178,-108,101,-209,-87,-294,-262,-358,-357,-424,-367,-464,-325,-489,-251,-466,-174,-409,-117,-319,-86,-226,-64,-147,-55,-83,-56,-37,-54,-7,-55,7,-59,12,-55,16,-53,21,-54,21,-51,23,-50,23,-53,24,-53,26,-56,28,-55,27,-61,29,-62,27,-61,31,-62,27,-61,26,-58,29,-61,29,-59,25,-63,28,-69,30,-74,33,-77,33,-78,28,-83,27,-85,27,-86,25,-89,25,-93,27,-94,24,-99,23,-101,20,-105,25,-112,24,-121,20,-121,21,-122,18,-122,23,-126,18,-124,14,-125,18,-127,11,-128,8,-124,17,-128,18,-128,17,-128,19,-122,18,-119,14,-111,15,-100,18,-89,21,-76,21,-70,23,-66,21,-55,25,-49,26,-46,27,-35,30,-28,38,-19,40,-13,47,-9,50,-5,47,-3,49
-3,49,-9,46,-20,48,-16,49,-15,49,-16,49,-14,46,-16,43,-17,41,-19,41,-23,44,-25,41,-26,41,-29,45,-32,38,-29,38,-32,35,-30,35,-31,33,-30,32,-27,31,-29,34,-28,36,-35,34,-36,35,-36,32,-40,32,-40,34,-40,32,-36,32,-37,33,-36,32,-35,28,-31,31,-36,28,-40,24,-37,24,-38,26,-39,28,-38,26,-39,25,-35,26,-35,26,-36,28,-36,25,-36,19,-40,21,-36,20,-41,22,-44,20,-46,20,-43,23,-42,22,-34,20,-33,18,-32,20,-39,25,-38,18,-39,16,-44,18,-38,22,-38,20,-40,18,-31,18,-34,19,-35,16,-37,15,-34,14,-43,19,-45,14,-42,13,-39,15,-39,18,-38,17,-35,19,-34,21,-34,17,-39,16,-35,20,-40,18,-39,18,-38,13,-43,15,-39,17,-41,15,-42,14,-38,19,-34,15,-37,18,-36,16,-45,13,-44,13,-43,12,-43,10,-46,7,-44,13,-37,19,-38,15,-33,20,-34,19,-40,19,-43,18,-47,14,-48,15,-43,14,-41,13,-44,20,-41,16,-37,18,-37,14,-40,9,-37,8,-35,12,-29,14,-25,12,-20,14,-21,20,-20,22,-16,33,-13,35,-4,30,0,30,-2,28,0,25,3,20,-1,20,-12,12,-21,14,-28,10,-32,7,-37,7,-41,14,-49,10,-51,6,-55,6,-60,5,-63,5,-59,7,-57,1,-53,4,-41,4,-25,13,-2,25,46,33,115,31,167,23,203,19,230,-15,196,-90,51,-187,-136,-267,-273,-326,-325,-374,-317,-412,-288,-422,-234,-395,-172,-344,-128,-276,-104,-211,-89,-146,-78,-86,-73,-45,-75,-20,-70,-7,-67,4,-65,7,-65,10,-69,10,-72,14,-74,14,-76,15,-75,17,-74,15,-71,18,-70,20,-71,24,-71,18,-73,19,-77,18,-81,19,-80,21,-86,21,-88,14,-88,17,-88,16,-82,23,-84,22,-83,20,-86,14,-83,16,-90,14,-92,18,-95,13,-97,16,-98,15,-97,10,-93,9,-94,10,-92,13,-97,9,-96,11,-100,12,-106,12,-106,8,-104,6,-104,7,-106,0,-99,0,-100,2,-99,-5,-96,-7,-102,-13,-100,-11,-101,-9,-105,-15,-103,-17,-100,-15,-102,-16,-94,-17,-84,-20,-83,-21,-76,-24,-78,-24,-71,-25,-69,-29,-63,-24,-54,-27,-49,-22,-40,-21,-34,-20,-27,-16,-19,-4,-16,-6,-13,3,-14,1,-12,8,-16,11,-15,16,-14,20,-13,35,-12,30,-13,36,-13,38,-15,36,-21,40,-20,44,-28,42,-31,42,-34,38,-32,40,-34,43,-34,38,-29,37,-25,39,-27,42,-28,37,-25,34,-29,33,-33,32,-34,34,-33,28,-38,27,-38,26,-34,27,-31,23,-30,18,-32,22,-34,21,-39,23,-45,18,-44,19,-46,20,-44,21,-42,24,-38,17,-40,19,-39,13,-37,20,-38,22,-45,19,-49,18,-48,15,-45,9,-46,9,-44,10,-41,14,-37,16,-39,11,-41,10,-42,10,-45,10,-45,13,-44,10,-44,8,-52,7,-46,4,-43,7,-42,9,-45,5,-43,19,-44,13,-44,10,-48,13,-51,13,-50,8,-48,9,-48,3,-45,10,-42,6,-42,3,-45,6,-45,8,-44,4,-52,7,-54,4,-51,2,-52,5,-54,2,-53,5,-48,6,-49,4,-50,6,-44,2,-49,2,-49,4,-48,7,-47,8,-46,11,-44,4,-37,8,-28,9,-21,15,-17,23,-23,26,-21,28,-20,22,-19,28,-21,25,-25,20,-19,11,-16,6,-22,-3,-27,-10,-29,-9,-34,-15,-43,-12,-54,-6,-59,-1,-64,0,-62,-2,-68,-4,-67,-4,-66,-5,-61,-2,-59,-5,-57,-8,-45,-11,-39,0,-13,10,34,26,102,21,160,18,196,7,222,-27,178,-104,27,-192,-159,-267,-283,-332,-336,-382,-333,-415,-306,-427,-248,-403,-193,-352,-143,-287,-115,-224,-90,-155,-76,-91,-73,-49,-77,-28,-77,-15,-80,-7,-80,-2,-76,6,-76,12,-77,11,-79,15,-79,15,-77,13,-80,12,-79,14,-78,17,-79,15,-81,16,-83,22,-85,24,-85,17,-84,22,-79,20,-86,20,-84,21,-89,23,-92,18,-99,18,-104,18,-101,19,-104,20,-111,20,-112,20,-114,21,-119,11,-123,14,-124,15,-131,15,-131,11,-137,8,-146,6,-146,4,-154,6,-157,1,-155,-6,-158,-7,-162,-6,-163,-9,-170,-16,-173,-17,-179,-24,-177,-24,-184,-28,-191,-26,-191,-29,-188,-32,-179,-34,-177,-39,-175,-44,-166,-40,-158,-44,-152,-42,-147,-36,-134,-35,-127,-37,-113,-25,-101,-24,-87,-29,-77,-20,-74,-16,-67,-12,-60,-10,-57,-4,-55,3,-54,13,-54,22,-52,18,-47,21,-47,25,-48,15,-44,19,-44,22,-49,24,-51,23,-51,23,-55,26,-55,20,-57,26,-55,27,-53,32,-48,31,-48,29,-48,24,-51,28,-53,26,-57,22,-57,21,-57,22,-58,21,-57,21,-59,17,-56,17,-54,17,-52,18,-52,15,-54,16,-55,13,-55,16,-56,13,-57,15,-54,12,-59,10,-57,14,-54,9,-58,12,-58,13,-63,14,-61,21,-40,30,26,27,108,7,171,-17,211,-45,173,-77,5,-147
-184,-223,-315,-302,-354,-356,-343,-395,-302,-411,-236,-398,-168,-351,-115,-273,-81,-198,-63,-124,-56,-76,-50,-34,-48,-2,-48,4,-54,12,-47,12,-52,17,-57,17,-49,16,-51,18,-49,18,-47,19,-44,29,-48,29,-51,27,-50,25,-47,27,-51,28,-52,23,-56,22,-57,21,-55,28,-53,30,-56,30,-55,27,-54,28,-61,29,-67,30,-67,26,-74,26,-78,23,-80,28,-86,24,-89,27,-92,25,-88,22,-96,16,-96,19,-103,13,-104,20,-108,17,-112,16,-118,11,-117,8,-115,10,-115,11,-111,10,-114,5,-122,7,-120,8,-115,1,-113,-4,-105,-3,-95,-6,-83,-11,-70,-10,-58,-9,-49,-2,-36,1,-31,-2,-29,1,-23,2,-19,9,-20,11,-14,15,-8,28,-4,36,-4,33,-1,34,-4,37,-1,34,-14,39,-19,36,-20,37,-22,38,-21,35,-25,39,-24,35,-24,38,-20,35,-24,35,-24,31,-25,32,-28,35,-32,33,-28,33,-26,31,-25,29,-28,24,-35,20,-35,19,-36,24,-30,21,-35,17,-42,21,-43,21,-43,17,-41,16,-36,15,-34,16,-34,15,-37,15,-34,11,-35,13,-41,18,-42,18,-42,19,-39,15,-32,13,-29,11,-29,12,-18,10,-2,11,7,22,19,27,23,25,15,38,20,44,18,38,22,39,16,37,8,35,0,28,-10,26,-24,24,-30,18,-35,24,-34,25,-45,19,-61,16,-60,7,-56,7,-45,4,-37,1,-31,-5,-22,-2,-12,10,15,27,68,32,141,35,203,32,244,21,250,8,158,-45,-24,-120,-189,-189,-283,-243,-303,-291,-287,-320,-263,-327,-224,-315,-169,-274,-117,-224,-91,-175,-85,-127,-83,-83,-71,-43,-66,-16,-62,-3,-64,2,-65,10,-64,4,-63,9,-64,11,-59,16,-52,17,-56,18,-61,20,-67,20,-70,25,-72,28,-70,27,-75,20,-81,19,-80,22,-84,17,-96,17,-106,13,-104,20,-104,15,-99,12,-108,17,-125,14,-136,17,-134,16,-138,13,-139,8,-143,9,-138,15,-150,9,-160,8,-163,10,-163,5,-169,8,-178,8,-183,6,-185,0,-191,6,-195,-2,-192,-4,-192,-2,-200,-4,-206,-9,-214,-18,-218,-15,-216,-16,-219,-13,-222,-24,-214,-29,-208,-28,-204,-30,-192,-26,-184,-25,-175,-26,-162,-28,-156,-24,-144,-19,-139,-23,-128,-16,-120,-11,-113,-11,-101,-4,-89,0,-84,8,-88,13,-88,16,-89,20,-84,23,-83,25,-79,27,-71,28,-71,33,-72,33,-68,38,-62,40,-62,39,-63,36,-72,35,-72,39,-74,40,-73,39,-73,37,-75,39,-72,36,-70,35,-69,34,-68,35,-72,38,-72,32,-80,32,-82,31,-85,31,-85,33,-85,32,-82,34,-82,38,-82,35,-80,35,-86,36,-89,31,-90,29,-90,24,-92,26,-98,24,-96,30,-95,28,-94,26,-95,23,-95,26,-97,24,-103,31,-101,31,-103,27,-99,23,-102,25,-100,28,-100,27,-100,25,-100,31,-101,28,-103,27,-109,32,-111,30,-108,30,-105,28,-105,28,-107,29,-107,27,-103,29,-102,31,-101,31,-107,29,-106,29,-108,30,-108,27,-108,28,-107,32,-109,25,-108,30,-108,25,-105,29,-105,28,-105,30,-112,30,-113,31,-112,31,-110,30,-107,28,-106,32,-108,33,-106,36,-104,34,-102,36,-106,35,-110,34,-111,31,-114,30,-108,28,-113,30,-105,28,-108,32,-107,34,-105,30,-104,28,-105,31,-109,31,-113,30,-111,34,-112,32,-109,30,-114,37,-110,34,-111,37,-108,35,-108,38,-104,34,-108,35,-110,31,-114,31,-116,31,-112,33,-108,31,-108,31,-110,35,-114,33,-109,33,-105,35,-105,33,-97,33,-92,36,-90,41,-87,40,-85,41,-79,48,-73,47,-70,47,-72,51,-73,50,-75,45,-75,43,-79,38,-87,30,-91,20,-97,17,-98,7,-100,15,-103,24,-108,23,-114,28,-124,26,-124,28,-128,25,-122,23,-123,27,-117,19,-102,21,-86,29,-60,35,-15,44,46,45,91,36,112,37,129,11,94,-62,-38,-157,-218,-236,-344,-297,-388,-339,-381,-384,-346,-412,-291,-398,-233,-347,-194,-285,-163,-218,-145,-150,-132,-88,-127,-39,-126,-15,-123,3,-124,15,-121,23,-124,27,-126,32,-126,33,-126,35,-128,40,-127,33,-125,34,-128,39,-126,39,-125,39,-128,37,-123,40,-128,45,-135,43,-139,49,-135,45,-137,37,-140,45,-145,46,-142,47,-141,42,-142,42,-142,44,-145,45,-146,43,-154,43,-158,41,-158,37,-155,37,-163,38,-163,38,-164,34,-170,30,-166,27,-172,27,-182,30,-192,31,-189,24,-198,13,-197,23,-200,22,-198,22,-202,21,-202,15,-201,12,-206,13,-214,10,-215,7,-222,3,-225,3,-224,2,-219,0,-215,-3,-203,-2,-196,-6,-184,-8,-180,-6,-177,-2,-169,7,-156,7,-144,12,-131,12,-118,15,-104,22,-99,23,-90,26,-84,34,-78,43,-78,46,-86,51,-83,51,-80,54,-79,49,-79,57,-76,54,-73,58,-71,56,-70,57,-73,55,-71,56,-72,55,-77,56,-79,55,-78,54,-80,54,-79,56,-76,52,-75,47,-76,52
-78,55,-81,54,-83,52,-85,51,-87,53,-81,46,-84,45,-88,42,-84,42,-84,44,-84,42,-91,45,-92,43,-87,41,-91,41,-87,41,-93,42,-90,39,-90,39,-84,37,-88,37,-86,36,-84,36,-83,31,-83,31,-82,33,-91,38,-77,46,-32,52,40,45,108,21,148,-8,122,-35,-10,-41,-203,-62,-331,-121,-384,-197,-379,-255,-354,-295,-316,-311,-254,-302,-185,-265,-119,-211,-80,-147,-63,-83,-57,-37,-56,-3,-63,23,-68,38,-66,54,-64,51,-62,44,-57,40,-52,49,-49,54,-50,54,-59,59,-61,56,-68,54,-72,48,-76,44,-80,38,-80,35,-77,35,-78,31,-80,29,-81,29,-80,31,-82,26,-87,25,-93,19,-96,24,-100,21,-100,23,-103,21,-103,16,-104,14,-108,20,-113,17,-115,19,-120,16,-124,11,-133,11,-136,11,-140,7,-140,7,-139,7,-145,3,-147,-1,-152,0,-159,-2,-158,-4,-159,-9,-161,-13,-154,-17,-153,-17,-149,-19,-140,-18,-131,-22,-124,-20,-116,-22,-109,-20,-102,-16,-93,-14,-83,-12,-74,-9,-70,-6,-58,2,-56,6,-48,14,-49,20,-46,21,-40,26,-41,31,-46,35,-49,36,-53,37,-58,46,-60,41,-61,43,-63,42,-60,39,-61,40,-62,42,-60,42,-64,40,-66,43,-69,46,-71,46,-73,44,-71,45,-69,45,-71,40,-63,41,-69,43,-69,33,-72,40,-74,40,-73,37,-64,41,-51,41,-48,42,-44,39,-39,35,-40,38,-42,38,-42,35,-43,38,-45,38,-50,40,-48,40,-50,36,-46,36,-42,33,-39,38,-34,41,-34,36,-34,34,-29,32,-27,36,-24,38,-13,37,0,39,14,37,28,43,31,55,29,61,26,67,17,60,12,56,6,49,-8,46,-17,46,-29,44,-41,44,-43,44,-46,42,-52,44,-52,37,-55,27,-55,22,-57,24,-62,20,-57,21,-58,18,-45,18,-25,17,-9,27,13,38,69,50,125,44,166,39,196,23,213,-10,143,-87,-32,-174,-200,-259,-302,-313,-330,-361,-310,-402,-262,-417,-204,-395,-148,-349,-113,-276,-95,-193,-85,-127,-75,-71,-71,-26,-68,0,-65,12,-61,17,-61,26,-64,24,-62,26,-64,29,-68,29,-69,38,-71,35,-66,33,-66,31,-64,32,-62,33,-64,38,-68,41,-70,43,-66,43,-71,42,-74,43,-73,46,-77,48,-80,46,-74,48,-79,41,-79,46,-80,45,-84,43,-92,42,-97,37,-101,41,-110,39,-110,38,-110,35,-115,33,-113,35,-113,34,-120,30,-126,32,-137,34,-140,22,-141,22,-144,19,-148,18,-150,15,-149,12,-149,16,-151,19,-148,15,-157,7,-160,8,-158,7,-157,2,-154,3,-148,4,-136,2,-128,1,-121,-1,-108,0,-96,-2,-85,-3,-78,-3,-68,4,-63,5,-50,9,-45,17,-38,17,-28,23,-23,26,-17,33,-19,37,-17,39,-15,46,-16,47,-17,45,-15,50,-16,48,-16,52,-10,54,-15,52,-13,54,-14,53,-13,54,-16,52,-18,51,-20,56,-20,54,-18,54,-20,53,-21,55,-18,54,-18,53,-18,48,-21,50,-28,48,-25,50,-25,52,-27,52,-29,47,-31,52,-25,48,-26,42,-21,42,-26,41,-30,40,-29,40,-30,43,-36,39,-37,44,-34,41,-36,40,-32,40,-31,43,-31,45,-34,42,-30,41,-35,43,-35,43,-37,42,-38,41,-37,38,-34,38,-34,34,-32,41,-32,38,-31,37,-32,37,-36,35,-43,35,-43,34,-43,37,-38,32,-38,35,-37,35,-39,36,-38,37,-36,38,-37,36,-38,33,-41,36,-42,32,-44,32,-42,33,-40,29,-35,28,-34,28,-34,28,-38,29,-40,27,-44,28,-44,26,-46,25,-44,23,-43,26,-45,26,-42,25,-38,24,-37,25,-39,26,-39,28,-40,29,-41,21,-44,20,-44,18,-46,21,-45,20,-41,24,-41,24,-43,23,-45,19,-44,21,-40,20,-44,22,-48,30,-44,23,-48,18,-45,14,-48,19,-41,20,-40,22,-40,22,-42,24,-40,20,-40,22,-36,22,-32,18,-20,21,-19,24,-21,32,-16,32,-12,35,-8,33,-1,34,-5,40,-4,37,2,34,0,27,-9,24,-11,22,-17,22,-23,14,-32,13,-38,20,-42,19,-45,17,-50,18,-60,21,-60,16,-52,11,-55,13,-48,12,-36,12,-25,13,-11,17,27,30,88,36,141,34,181,28,216,20,214,-14,120,-107,-62,-200,-220,-278,-303,-334,-318,-380,-294,-420,-246,-422,-186,-392,-141,-328,-103,-260,-86,-185,-74,-112,-69,-60,-60,-22,-59,0,-60,11,-56,18,-58,22,-66,27,-62,25,-65,31,-66,27,-66,30,-67,34,-66,27,-64,29,-61,34,-63,35,-64,36,-70,33,-72,30,-75,35,-78,36,-74,35,-75,37,-76,33,-69,34,-71,35,-71,36,-76,33,-79,31,-86,30,-90,30,-94,30,-99,30,-103,28,-103,29,-105,30,-104,23,-111,28,-111,23,-112,23,-119,19,-122,19,-128,16,-131,19,-134,17,-134,10,-134,13,-136,7,-137,9,-139,1,-146,1,-145,3,-148,0,-152,-4,-156,-6,-156,-7,-150,-8,-146,-12,-147,-14,-141,-14
-139,-16,-130,-16,-127,-16,-122,-20,-111,-17,-100,-23,-92,-19,-84,-13,-68,-12,-59,-7,-51,-4,-46,1,-42,4,-38,6,-33,12,-27,17,-27,20,-24,20,-20,24,-19,27,-14,33,-18,39,-18,39,-14,41,-10,46,-17,47,-21,47,-19,46,-18,46,-20,43,-15,43,-13,46,-12,48,-18,47,-18,51,-23,50,-24,45,-25,45,-24,46,-24,42,-22,37,-22,37,-24,34,-17,38,-18,40,-22,36,-23,34,-31,39,-30,40,-30,40,-28,37,-33,37,-26,34,-29,31,-31,32,-32,30,-30,36,-37,31,-33,30,-32,29,-35,30,-35,28,-31,27,-30,23,-26,23,-22,29,-25,25,-25,30,-24,28,-24,21,-23,20,-33,16,-32,21,-36,21,-30,18,-26,12,-33,18,-37,15,-40,20,-30,20,-26,13,-26,12,-32,15,-38,14,-39,19,-33,18,-22,17,-22,18,-18,15,-6,10,-8,8,-8,11,-16,13,-13,12,-14,15,-12,12,-8,16,-1,12,-2,16,-8,12,-11,13,-12,21,-10,15,-10,11,-14,10,-18,13,-9,13,-6,14,-8,18,-5,15,4,14,4,15,8,18,10,18,11,24,8,23,12,21,10,27,9,24,10,19,16,19,17,19,11,8,5,-5,0,-9,0,-11,-8,-10,-25,-6,-58,-6,-72,-10,-76,-4,-74,0,-69,6,-67,1,-62,-5,-62,-6,-69,-4,-64,-2,-54,-3,-19,1,49,22,129,23,180,29,219,25,231,10,160,-35,-12,-104,-189,-172,-296,-237,-340,-281,-333,-315,-309,-344,-260,-345,-197,-312,-142,-258,-110,-211,-102,-162,-99,-111,-94,-67,-93,-35,-87,-18,-86,-7,-86,0,-84,0,-84,4,-83,3,-80,6,-87,9,-87,10,-86,9,-88,9,-96,5,-98,7,-92,8,-93,10,-87,13,-90,8,-93,8,-94,10,-96,11,-106,16,-109,16,-109,12,-105,17,-102,13,-105,9,-108,16,-116,15,-119,12,-121,14,-128,12,-136,13,-138,10,-144,6,-148,6,-154,1,-158,-3,-165,-2,-172,-10,-179,-6,-177,-7,-181,-7,-188,-11,-199,-14,-200,-15,-202,-17,-207,-14,-213,-24,-215,-29,-216,-24,-217,-28,-220,-30,-219,-31,-220,-32,-218,-33,-218,-34,-212,-40,-204,-39,-195,-43,-180,-45,-169,-45,-156,-45,-150,-40,-142,-41,-133,-34,-126,-33,-120,-26,-110,-24,-102,-23,-99,-15,-88,-8,-78,-6,-71,1,-68,5,-64,5,-66,8,-66,14,-62,14,-63,20,-61,20,-55,22,-51,23,-48,26,-44,21,-48,24,-55,23,-52,23,-52,23,-53,27,-51,27,-55,24,-57,21,-57,23,-55,26,-55,29,-50,26,-50,25,-51,24,-57,25,-62,22,-59,22,-61,23,-58,23,-56,22,-56,16,-60,24,-58,24,-57,29,-60,26,-65,25,-69,22,-66,22,-67,14,-64,18,-63,17,-57,17,-56,18,-58,21,-63,15,-64,25,-71,22,-67,17,-66,17,-66,19,-66,17,-64,15,-63,12,-62,14,-61,16,-63,11,-66,14,-67,14,-68,17,-67,18,-66,20,-66,19,-62,19,-61,23,-62,23,-60,22,-60,18,-63,20,-72,18,-73,13,-70,17,-72,20,-64,22,-61,20,-59,19,-62,20,-60,15,-63,15,-64,16,-70,16,-71,16,-69,19,-68,19,-63,18,-63,20,-57,17,-58,12,-57,17,-52,19,-45,16,-48,19,-44,20,-42,32,-36,34,-33,35,-25,33,-27,33,-28,34,-25,30,-26,28,-34,22,-39,15,-44,10,-50,2,-52,1,-60,6,-64,5,-64,12,-61,10,-64,14,-69,12,-70,6,-72,10,-72,8,-68,4,-58,9,-40,12,-13,15,31,29,95,36,149,39,184,38,197,23,153,-12,5,-77,-174,-143,-295,-210,-338,-258,-334,-296,-305,-326,-265,-333,-209,-313,-165,-270,-130,-218,-111,-166,-102,-118,-99,-73,-95,-40,-95,-14,-89,-5,-85,4,-84,7,-86,7,-81,14,-86,13,-90,13,-86,13,-86,16,-91,16,-86,15,-94,10,-92,12,-89,11,-90,16,-91,14,-91,13,-96,18,-105,16,-109,13,-106,18,-102,17,-107,17,-104,17,-103,15,-106,18,-113,20,-114,19,-122,19,-131,12,-134,11,-143,10,-145,12,-149,11,-151,7,-155,3,-158,6,-161,3,-172,0,-181,-2,-189,-3,-194,-4,-196,-10,-202,-14,-202,-15,-206,-16,-208,-16,-212,-22,-218,-25,-216,-23,-225,-28,-223,-31,-222,-37,-226,-34,-218,-42,-214,-39,-208,-39,-196,-42,-186,-43,-174,-45,-167,-43,-158,-43,-153,-43,-143,-37,-128,-37,-120,-28,-112,-26,-104,-23,-99,-16,-92,-12,-85,-8,-82,-8,-80,-1,-79,0,-76,-2,-77,0,-73,10,-68,11,-64,16,-66,18,-63,19,-60,22,-61,24,-60,25,-65,22,-63,28,-62,21,-64,26,-63,26,-62,27,-59,23,-60,24,-59,22,-61,27,-59,26,-62,28,-64,24,-63,23,-63,27,-66,23,-64,22,-65,20,-63,22,-64,24,-65,22,-69,22,-69,22,-69,19,-70,21,-69,17,-69,15,-64,18,-61,19,-64,19,-60,17,-63,17,-65,18,-60,22,-47,20,-32,15,-31,15,-29,15,-32,14,-26,15,-25,15,-29,13,-27,17
-24,14,-28,15,-28,15,-27,13,-28,9,-27,12,-24,11,-24,14,-21,15,-25,15,-24,15,-26,8,-28,6,-30,10,-30,15,-26,16,-25,15,-23,12,-22,14,-19,12,-22,12,-26,15,-24,10,-28,12,-34,17,-31,15,-31,9,-29,10,-27,10,-22,12,-22,12,-23,14,-18,10,-20,13,-17,9,-19,11,-14,7,-8,14,-7,12,0,15,5,17,9,23,12,29,12,27,10,29,12,28,4,25,5,22,7,20,3,15,1,6,1,-2,0,-1,-9,-2,-16,2,-20,4,-25,7,-31,8,-34,4,-37,3,-35,0,-34,2,-28,3,-22,4,-8,1,7,5,30,14,81,23,138,28,177,27,203,21,214,2,176,-57,41,-151,-139,-240,-260,-308,-304,-359,-302,-400,-261,-431,-204,-430,-155,-393,-108,-333,-79,-259,-62,-185,-49,-123,-45,-74,-42,-37,-39,-13,-38,0,-38,-1,-38,3,-42,2,-44,8,-39,11,-42,14,-44,12,-40,12,-39,15,-37,15,-41,15,-41,19,-43,18,-51,19,-53,20,-56,21,-56,21,-55,17,-53,14,-55,14,-54,13,-57,18,-61,20,-64,15,-64,18,-77,15,-76,17,-82,16,-81,11,-84,12,-86,14,-90,15,-94,11,-95,13,-108,8,-118,8,-127,4,-130,4,-133,3,-137,0,-139,-4,-145,-4,-148,-10,-151,-19,-157,-18,-164,-16,-166,-23,-173,-23,-177,-26,-181,-29,-185,-28,-185,-29,-180,-28,-177,-35,-178,-38,-170,-39,-164,-39,-157,-42,-152,-43,-142,-40,-132,-44,-122,-43,-105,-39,-92,-37,-80,-38,-69,-35,-61,-31,-53,-29,-42,-22,-39,-15,-36,-14,-36,-10,-29,-11,-20,-6,-19,-4,-16,-3,-14,3,-14,8,-14,11,-18,12,-16,13,-21,17,-17,19,-18,22,-20,21,-20,20,-18,18,-18,19,-16,19,-16,19,-17,13,-20,16,-25,17,-28,11,-27,12,-24,11,-25,11,-22,4,-22,4,-23,6,-23,6,-26,4,-27,1,-31,0,-29,4,-35,4,-32,0,-26,3,-29,6,-28,3,-27,2,-29,4,-30,0,-34,-2,-34,0,-36,-1,-34,2,-39,0,-34,-4,-36,-4,-36,-4,-32,-2,-29,-2,-27,-4,-32,0,-33,-4,-37,0,-41,-2,-39,0,-41,-1,-40,-3,-31,-4,-33,-3,-33,-5,-34,-2,-32,-3,-37,-2,-38,2,-38,-1,-39,0,-35,0,-32,-1,-32,0,-32,3,-35,0,-32,0,-32,6,-36,5,-36,3,-37,-1,-34,0,-36,2,-31,0,-32,-1,-25,-3,-32,-1,-26,1,-29,-1,-28,4,-30,6,-30,-3,-30,-3,-21,1,-15,3,-9,7,0,10,3,19,4,26,5,31,3,30,-2,26,-5,22,-5,19,0,12,-4,7,-12,1,-14,-3,-17,-7,-26,-4,-32,-5,-37,2,-38,5,-41,-2,-44,1,-45,0,-44,-3,-41,-3,-36,-4,-27,-5,-19,0,-5,3,21,11,72,21,134,30,175,24,207,21,228,3,193,-56,58,-155,-128,-245,-255,-314,-305,-368,-304,-414,-267,-448,-215,-440,-157,-404,-113,-347,-82,-270,-68,-198,-58,-128,-50,-74,-48,-40,-48,-18,-45,-10,-47,-5,-50,2,-52,7,-53,7,-52,11,-50,15,-50,16,-45,17,-44,14,-47,19,-47,20,-50,19,-52,17,-54,21,-57,20,-60,22,-59,18,-59,16,-59,16,-59,19,-60,23,-65,19,-64,17,-70,14,-79,22,-77,16,-80,18,-77,15,-83,21,-82,22,-88,17,-92,15,-94,15,-96,17,-106,11,-112,8,-124,6,-125,1,-128,0,-135,0,-132,1,-134,-2,-139,-5,-146,-5,-154,-6,-159,-9,-167,-19,-169,-20,-172,-19,-173,-25,-173,-28,-169,-30,-166,-31,-163,-36,-155,-36,-148,-38,-147,-41,-142,-38,-132,-36,-123,-42,-103,-39,-92,-36,-80,-32,-70,-32,-54,-34,-45,-26,-37,-15,-31,-16,-28,-16,-25,-10,-23,-4,-19,-1,-16,0,-11,7,-8,8,-8,11,-8,15,-6,20,-11,24,-13,22,-14,23,-14,21,-18,18,-15,15,-15,13,-13,17,-11,15,-12,20,-13,21,-9,16,-16,20,-15,20,-19,19,-20,19,-19,20,-16,18,-12,22,-13,23,-16,23,-20,21,-24,20,-22,18,-26,18,-26,18,-28,14,-28,20,-26,15,-25,13,-25,14,-23,14,-24,10,-24,9,-32,12,-31,10,-31,11,-29,9,-28,16,-29,18,-25,17,-27,12,-25,11,-21,11,-23,10,-26,7,-28,8,-35,8,-32,6,-32,5,-32,7,-32,13,-28,11,-25,11,-30,15,-26,13,-31,12,-34,7,-35,10,-34,9,-31,9,-31,9,-30,12,-28,17,-29,17,-30,14,-30,10,-26,11,-31,16,-31,19,-32,16,-31,9,-32,11,-31,15,-25,13,-21,17,-21,21,-27,21,-25,25,-21,29,-16,22,-8,25,-4,31,-11,37,-6,45,-1,44,0,49,4,47,4,45,3,37,6,36,0,36,-8,25,-12,17,-16,22,-20,20,-28,19,-28,19,-33,26,-36,27,-39,29,-42,28,-40,25,-42,27,-39,27,-27,26,-12,27,0,27,34,31,90,58,162,62,214,59,246,58,256,42,174,0,0,-64,-168,-142,-265,-206,-291,-252
-272,-286,-242,-303,-200,-307,-148,-278,-109,-223,-81,-175,-63,-123,-53,-74,-48,-37,-44,0,-43,22,-39,31,-38,37,-40,40,-40,49,-44,53,-43,53,-44,55,-52,56,-59,57,-56,57,-57,59,-47,63,-43,59,-48,59,-53,58,-55,57,-61,58,-63,62,-63,59,-70,64,-70,63,-72,61,-72,63,-75,61,-85,59,-82,57,-88,60,-97,62,-106,60,-113,60,-117,57,-119,59,-119,59,-127,59,-130,56,-141,54,-150,52,-156,52,-164,54,-170,50,-182,43,-179,44,-183,45,-187,39,-191,41,-202,44,-212,36,-211,31,-212,31,-208,25,-213,29,-209,25,-212,25,-196,19,-191,24,-177,24,-167,31,-150,28,-136,38,-132,35,-125,40,-121,43,-111,41,-104,39,-91,42,-86,51,-84,56,-81,69,-77,72,-69,69,-73,67,-82,68,-79,67,-78,73,-78,76,-78,68,-73,65,-71,67,-64,68,-68,70,-67,71,-69,64,-75,62,-77,68,-80,66,-77,65,-75,64,-79,65,-81,66,-71,65,-77,65,-74,68,-81,67,-79,62,-81,66,-84,68,-87,70,-85,68,-84,63,-86,62,-81,68,-80,65,-83,67,-82,68,-87,62,-89,67,-86,64,-85,68,-85,69,-78,67,-67,65,-40,64,17,82,78,84,126,81,162,83,176,70,115,22,-51,-57,-247,-132,-356,-200,-374,-258,-340,-297,-275,-332,-208,-332,-152,-287,-123,-205,-105,-129,-93,-66,-90,-7,-88,37,-84,64,-81,74,-84,80,-83,88,-82,91,-75,93,-73,92,-78,96,-75,93,-78,100,-84,102,-87,99,-87,100,-91,101,-98,93,-100,89,-100,86,-104,91,-108,87,-115,86,-117,80,-116,78,-115,81,-121,75,-120,78,-117,79,-117,82,-123,85,-126,82,-133,79,-138,78,-142,80,-147,81,-150,82,-157,82,-159,79,-165,80,-166,79,-170,79,-175,77,-187,72,-190,73,-202,74,-205,73,-206,68,-213,70,-217,65,-209,67,-203,67,-197,67,-186,66,-178,64,-165,63,-160,66,-146,68,-121,72,-101,78,-86,80,-72,81,-75,84,-72,89,-69,93,-65,95,-63,96,-58,95,-58,93,-56,98,-57,103,-56,106,-52,115,-57,111,-60,109,-65,109,-73,108,-75,99,-81,99,-83,99,-90,94,-85,96,-89,95,-84,98,-87,97,-91,100,-95,94,-96,90,-99,92,-104,87,-105,90,-104,94,-106,88,-113,90,-110,91,-110,88,-112,87,-118,90,-121,87,-126,87,-128,90,-129,90,-132,89,-135,91,-133,86,-133,90,-131,91,-124,95,-121,96,-116,94,-105,91,-99,97,-97,100,-96,100,-93,106,-92,113,-85,113,-82,113,-82,107,-80,112,-72,115,-58,114,-33,120,14,126,81,131,129,131,159,127,175,106,125,56,-31,-23,-208,-111,-313,-187,-344,-244,-329,-289,-286,-342,-227,-340,-166,-308,-128,-236,-99,-154,-80,-82,-71,-22,-70,24,-69,56,-72,70,-76,79,-78,84,-79,86,-81,84,-83,86,-83,89,-88,90,-85,93,-87,88,-91,92,-92,97,-94,95,-99,97,-104,91,-105,97,-104,101,-105,103,-100,101,-95,104,-88,113,-81,112,-76,111,-72,115,-82,114,-88,120,-90,126,-90,129,-92,129,-92,126,-93,127,-96,127,-101,121,-107,117,-112,119,-112,121,-115,120,-117,118,-121,115,-122,121,-129,122,-136,123,-143,120,-142,115,-149,108,-154,103,-159,100,-168,95,-171,94,-170,89,-172,80,-167,82,-160,79,-153,80,-152,82,-142,77,-137,79,-130,77,-124,78,-115,78,-105,74,-107,73,-92,73,-84,81,-78,81,-72,90,-75,90,-72,89,-76,95,-75,95,-74,102,-68,100,-68,106,-63,109,-52,105,-44,108,-40,111,-36,114,-42,119,-44,127,-47,131,-52,130,-52,129,-51,128,-52,121,-54,117,-52,124,-55,123,-51,116,-52,119,-49,119,-48,122,-52,116,-48,122,-45,124,-42,121,-49,122,-47,118,-46,120,-41,117,-34,109,-31,109,-8,110,21,116,47,108,77,88,109,75,119,19,30,-85,-131,-199,-284,-286,-362,-343,-366,-390,-313,-423,-244,-442,-187,-419,-152,-341,-132,-237,-116,-127,-109,-47,-111,7,-103,40,-104,65,-101,78,-99,90,-96,92,-89,100,-80,104,-75,106,-67,105,-67,115,-63,117,-63,125,-62,129,-66,125,-66,129,-68,127,-72,129,-78,127,-80,126,-79,124,-78,127,-81,119,-78,125,-84,122,-84,124,-92,128,-98,131,-101,132,-106,130,-113,127,-116,130,-124,125,-129,126,-133,119,-137,119,-140,117,-148,108,-152,108,-159,106,-166,107,-170,103,-177,96,-184,91,-188,89,-187,90,-192,94,-196,92,-198,91,-200,90,-204,86,-205,82,-200,83,-201,83,-191,82,-184,84,-172,79,-156,81,-145,86,-131,89,-118,93,-107,97,-91,93,-72,98,-67,103,-63,108,-59,110,-54,114,-55,119,-55,121,-53,119,-55,118,-59,115,-61,111,-58,106,-54,106,-54,103,-51,104,-50,106,-42,110,-37,113,-29,115,-17,116,6,115,27,112,60,116,104,118,141,112,169,93,193,77,167,36,21,-66,-173,-173,-277,-263,-306,-332,-291,-373,-248,-402,-189,-412
-141,-377,-111,-303,-95,-206,-81,-110,-74,-32,-75,22,-75,52,-80,75,-87,85,-84,79,-85,88,-80,90,-82,94,-79,93,-78,97,-79,103,-76,109,-79,107,-80,117,-79,116,-69,115,-66,110,-60,108,-58,118,-63,120,-65,122,-66,124,-71,123,-75,122,-79,121,-83,120,-85,117,-88,115,-94,112,-96,109,-100,111,-96,117,-94,112,-100,115,-102,112,-108,109,-113,107,-120,102,-122,101,-128,92,-129,91,-135,88,-128,92,-132,89,-133,83,-130,77,-133,78,-128,76,-132,73,-122,74,-118,73,-111,73,-104,68,-91,68,-78,74,-72,74,-65,78,-59,83,-55,87,-53,92,-48,94,-46,90,-42,94,-42,104,-44,106,-47,105,-40,105,-40,101,-43,104,-43,106,-44,106,-43,99,-47,103,-50,100,-51,98,-51,101,-44,99,-47,97,-45,92,-47,90,-47,93,-49,90,-55,95,-49,95,-48,96,-48,93,-49,93,-49,92,-45,83,-34,86,-35,81,-39,86,-51,90,-50,96,-30,94,-9,76,18,54,12,16,-104,-6,-255,-2,-350,18,-396,40,-402,58,-394,72,-388,84,-379,94,-376,135,-366,184,-342,222,-314,232,-281,217,-234,199,-177,195,-132,182,-107,162,-84,130,-68,97,-54,73,-47,58,-40,52,-28,41,-24,31,-23,35,-26,34,-24,31,-26,24,-27,19,-33,21,-31,20,-24,15,-29,15,-30,11,-30,13,-34,11,-27,9,-29,6,-35,9,-36,3,-34,11,-37,8,-40,2,-44,-1,-46,-2,-44,-12,-48,-18,-47,-25,-50,-35,-52,-37,-55,-42,-54,-43,-52,-51,-56,-54,-55,-61,-52,-60,-48,-66,-48,-66,-47,-72,-46,-73,-42,-82,-37,-87,-31,-88,-24,-93,-19,-100,-12,-100,-4,-103,11,-105,19,-101,28,-107,40,-106,41,-100,42,-96,51,-95,56,-88,60,-78,61,-73,64,-63,61,-53,55,-46,45,-36,36,-27,25,-18,15,-8,9,-3,3,6,-6,8,-17,15,-16,22,-18,28,-26,34,-24,45,-25,49,-28,54,-29,55,-25,62,-19,65,-17,69,-18,78,-12,90,15,90,40,80,70,64,72,27,-30,0,-210,1,-338,23,-389,50,-392,76,-388,104,-373,109,-364,114,-364,139,-359,182,-331,214,-301,225,-272,210,-225,195,-169,185,-123,177,-89,161,-62,130,-35,92,-26,60,-21,43,-21,37,-21,33,-14,28,-12,26,-9,21,-4,20,-8,19,-2,23,0,18,-5,20,-5,19,-11,13,-13,19,-11,15,-14,11,-13,11,-20,11,-24,6,-26,7,-28,6,-24,3,-26,-1,-28,-3,-35,-6,-38,-9,-44,-14,-51,-20,-51,-27,-53,-37,-56,-40,-53,-47,-54,-50,-54,-53,-45,-56,-48,-60,-50,-62,-52,-70,-47,-74,-41,-75,-42,-87,-39,-87,-31,-89,-21,-93,-5,-99,0,-101,4,-102,16,-107,20,-99,26,-97,31,-104,43,-95,43,-93,47,-88,50,-76,49,-62,51,-49,50,-47,47,-34,46,-20,39,-10,28,0,17,3,6,10,-3,14,-3,23,-10,38,-13,47,-16,50,-17,53,-16,53,-17,62,-16,60,-22,65,-21,69,-12,66,-1,62,17,68,45,73,83,72,120,80,153,78,181,70,212,54,208,-11,94,-146,-104,-264,-248,-355,-294,-416,-270,-454,-203,-474,-147,-469,-97,-421,-74,-329,-61,-223,-53,-121,-50,-43,-46,1,-48,31,-52,43,-57,54,-53,61,-52,64,-53,66,-53,65,-55,71,-57,75,-52,73,-50,74,-48,76,-48,75,-45,85,-40,90,-33,92,-31,96,-35,97,-36,101,-46,103,-55,102,-57,97,-61,99,-67,99,-74,102,-73,103,-73,104,-67,102,-74,99,-78,100,-83,104,-85,105,-89,106,-96,101,-96,100,-96,97,-91,94,-95,88,-95,85,-94,81,-93,85,-98,92,-96,93,-100,93,-101,89,-95,87,-92,88,-91,90,-90,91,-81,94,-80,97,-69,99,-59,102,-56,104,-56,103,-54,107,-47,106,-46,101,-41,102,-31,103,-22,98,-19,98,-17,94,-16,94,-20,85,-23,84,-23,79,-19,79,-12,80,-13,82,-12,81,-9,78,-8,78,-15,77,-16,71,-21,67,-23,68,-30,66,-24,65,-22,63,-26,59,-27,64,-24,66,-18,65,-9,58,7,60,17,57,35,66,68,73,116,73,155,56,179,31,185,2,101,-53,-75,-137,-245,-219,-332,-286,-340,-342,-307,-376,-254,-401,-189,-395,-133,-361,-91,-287,-68,-202,-57,-135,-50,-76,-47,-36,-49,0,-49,20,-51,26,-50,27,-55,29,-54,34,-57,33,-53,40,-53,45,-45,41,-44,49,-35,49,-34,52,-33,49,-31,47,-36,57,-31,62,-32,60,-37,63,-43,63,-45,66,-54,64,-53,62,-55,61,-59,61,-61,59,-57,58,-53,51,-58,54,-59,55,-60,59,-54,63,-52,61,-57,56,-55,52,-62,41,-59,38,-66,36,-64,35,-67,26,-62,24,-60,24,-62,20,-61,22,-61,14,-53,11,-53,13,-57,12,-54,12,-52,7,-45,7,-35,7,-27,11,-21,8,-14,5,-13,8,-3,13,0,20,2,26,2,27,0,26,8,30,7,35,11,36,12,47,14,48,16,54,19,60
14,62,8,63,0,68,-2,65,-1,64,-6,60,-5,61,0,59,9,59,19,62,40,71,74,83,124,83,178,66,189,36,104,2,-70,0,-218,13,-297,-13,-317,-78,-309,-145,-285,-192,-255,-221,-209,-223,-157,-204,-108,-180,-80,-139,-61,-95,-50,-61,-42,-31,-37,-3,-31,17,-32,24,-32,26,-37,26,-35,27,-38,29,-48,30,-47,26,-52,28,-50,29,-50,32,-49,34,-48,33,-44,30,-47,30,-44,31,-43,35,-42,35,-41,33,-37,38,-37,40,-37,42,-45,37,-51,35,-48,30,-59,32,-63,31,-64,28,-62,29,-64,23,-64,23,-65,18,-67,17,-62,19,-62,22,-64,22,-61,21,-58,19,-56,20,-55,19,-57,17,-55,10,-56,6,-54,2,-48,-3,-38,-7,-34,-8,-26,-12,-20,-13,-13,-14,-12,-10,-9,-7,-5,-8,-7,-5,-6,-9,-2,0,-2,8,2,13,-9,18,-15,23,-15,28,-19,29,-20,33,-25,33,-28,36,-30,40,-30,39,-26,41,-16,40,-17,44,-20,44,-25,47,-30,51,-34,49,-36,43,-43,47,-48,48,-49,45,-47,47,-48,50,-50,48,-51,43,-55,45,-57,38,-61,42,-59,36,-60,43,-59,36,-60,37,-57,36,-57,42,-57,37,-59,39,-59,31,-65,30,-64,25,-65,24,-70,18,-64,20,-64,19,-69,17,-68,23,-67,18,-67,18,-67,21,-67,13,-72,16,-71,17,-75,18,-73,14,-79,15,-76,14,-75,6,-74,8,-72,8,-74,6,-72,10,-73,11,-68,9,-66,12,-64,13,-63,14,-61,12,-59,5,-62,6,-63,13,-64,15,-70,14,-75,14,-75,14,-76,11,-79,14,-75,14,-79,10,-76,9,-74,5,-74,3,-67,3,-65,6,-68,3,-65,3,-50,13,-36,16,-20,18,8,23,50,33,104,39,135,30,160,14,152,-8,63,-60,-97,-135,-235,-210,-308,-277,-324,-330,-312,-368,-280,-394,-227,-390,-175,-353,-142,-295,-117,-234,-110,-174,-104,-117,-101,-75,-92,-42,-94,-24,-92,-14,-91,-12,-88,-10,-85,-7,-89,1,-87,5,-88,4,-88,6,-83,8,-80,8,-82,11,-88,17,-90,15,-91,20,-97,14,-93,6,-97,11,-105,10,-112,13,-114,14,-114,19,-112,13,-113,11,-107,11,-101,7,-97,4,-95,9,-97,14,-94,13,-88,18,-84,17,-80,12,-82,12,-85,10,-78,14,-77,6,-70,6,-73,4,-69,2,-70,5,-67,10,-63,3,-63,1,-61,-2,-56,0,-51,0,-43,-3,-36,-2,-34,-1,-28,-2,-24,0,-18,0,-9,2,-3,5,5,3,7,11,16,5,28,9,22,13,27,16,28,20,31,22,33,24,30,32,36,36,32,43,20,46,13,42,2,45,-7,45,-19,49,-28,51,-36,43,-46,42,-58,39,-60,42,-63,40,-66,36,-69,34,-62,34,-63,38,-68,43,-66,38,-65,34,-66,39,-75,38,-79,30,-83,31,-89,27,-90,25,-89,17,-87,14,-88,7,-85,1,-87,1,-89,0,-88,4,-95,4,-96,1,-87,-6,-84,0,-69,1,-29,3,20,-8,62,-28,104,-38,126,-73,70,-151,-93,-253,-253,-345,-360,-422,-381,-466,-336,-493,-261,-500,-188,-489,-138,-433,-109,-340,-97,-236,-89,-155,-93,-92,-94,-42,-91,-14,-94,-3,-96,-5,-91,1,-89,0,-91,1,-88,4,-88,7,-91,4,-94,9,-90,11,-94,16,-96,15,-94,12,-90,13,-92,14,-93,14,-95,15,-104,14,-107,12,-119,10,-125,6,-130,1,-135,-3,-140,-4,-140,-5,-143,-4,-143,-6,-150,-7,-157,-7,-166,-9,-172,-7,-176,-6,-183,-16,-193,-15,-194,-15,-198,-21,-201,-25,-203,-21,-203,-24,-209,-21,-210,-22,-214,-24,-217,-22,-222,-22,-223,-20,-224,-22,-226,-28,-222,-22,-214,-21,-206,-22,-194,-24,-185,-23,-175,-19,-166,-12,-156,-2,-144,-2,-132,6,-117,5,-105,7,-77,7,-54,15,-35,18,-1,24,44,32,95,23,147,-11,183,-23,136,-51,-31,-113,-199,-208,-262,-305,-261,-384,-236,-437,-194,-476,-150,-462,-120,-387,-107,-283,-100,-186,-88,-110,-83,-67,-84,-33,-81,-10,-82,-8,-77,-3,-76,-1,-72,0,-81,2,-86,0,-82,10,-81,10,-81,10,-83,7,-83,10,-82,11,-80,13,-82,20,-86,16,-87,23,-90,19,-94,19,-99,17,-99,16,-102,13,-103,13,-104,10,-104,10,-111,12,-118,12,-119,12,-128,9,-135,10,-140,9,-143,11,-149,6,-143,10,-142,3,-132,5,-135,7,-131,10,-127,10,-123,11,-119,11,-118,18,-119,24,-112,28,-108,32,-99,31,-91,31,-87,29,-77,27,-75,29,-68,31,-64,28,-64,31,-61,28,-60,25,-61,26,-57,26,-61,27,-60,25,-62,18,-63,15,-68,20,-76,18,-81,17,-81,16,-86,8,-88,2,-88,-2,-87,1,-88,-2,-94,-2,-95,-8,-94,-6,-100,-9,-101,-11,-98,-6,-102,-16,-104,-12,-103,-11,-105,-15,-108,-14,-110,-16,-110,-22,-118,-23,-121,-20,-122,-24,-120,-25,-120,-23,-112,-23,-110,-25,-108,-19,-104,-21,-98,-17,-90,-16,-77,-13,-51,-9,-13,2,43,-2,88,-21,125,-35
136,-56,67,-114,-88,-204,-236,-281,-315,-350,-336,-400,-314,-448,-276,-480,-220,-468,-173,-419,-142,-340,-120,-252,-113,-176,-103,-116,-99,-68,-97,-35,-98,-24,-98,-16,-98,-12,-100,-10,-103,-8,-100,-7,-102,-8,-103,-7,-100,-4,-99,-2,-102,-8,-104,-3,-102,-3,-104,-2,-111,0,-116,-2,-118,2,-120,4,-125,-2,-125,2,-125,3,-130,0,-133,4,-142,4,-148,2,-152,3,-160,-6,-161,-8,-167,-4,-172,-8,-169,-8,-161,-10,-154,-9,-143,-13,-134,-17,-121,-12,-114,-6,-109,-1,-112,10,-110,19,-108,21,-99,27,-97,27,-90,27,-88,23,-86,26,-82,26,-80,28,-74,26,-69,27,-56,30,-55,38,-48,36,-39,38,-34,38,-29,41,-26,48,-22,46,-27,48,-25,47,-28,45,-31,44,-35,40,-36,39,-40,33,-42,34,-51,33,-51,31,-59,28,-68,26,-76,24,-74,18,-82,18,-84,18,-90,14,-90,13,-88,6,-88,8,-96,6,-97,3,-101,1,-111,-4,-114,-6,-118,-8,-119,-6,-122,-10,-118,-15,-107,-16,-93,-12,-60,-11,-12,-16,38,-32,82,-51,116,-74,93,-142,-48,-256,-218,-358,-322,-448,-355,-499,-320,-523,-264,-523,-192,-506,-148,-450,-128,-353,-116,-251,-101,-170,-101,-102,-100,-59,-98,-32,-97,-25,-94,-16,-96,-12,-100,-10,-102,-10,-102,-5,-107,-9,-111,-6,-108,-2,-108,0,-108,0,-102,0,-106,-4,-112,-7,-113,-4,-114,-2,-117,-1,-122,0,-126,-1,-132,-6,-132,-5,-134,-3,-139,-4,-140,-4,-141,-5,-142,-4,-146,-3,-151,-7,-155,-4,-159,-10,-160,-9,-164,-12,-167,-19,-172,-24,-176,-18,-180,-27,-184,-28,-190,-24,-199,-20,-203,-25,-204,-32,-199,-37,-193,-40,-172,-39,-153,-47,-137,-39,-128,-27,-114,-16,-106,-5,-97,7,-91,5,-82,6,-75,6,-68,9,-65,11,-55,16,-51,16,-49,11,-50,15,-56,12,-54,16,-59,11,-64,10,-64,7,-68,3,-67,4,-64,4,-59,-5,-46,-5,-26,-5,4,-8,58,2,107,6,143,-6,178,-14,210,-37,158,-126,-12,-252,-200,-354,-300,-426,-312,-472,-282,-502,-239,-522,-192,-498,-151,-439,-130,-347,-113,-254,-98,-178,-98,-117,-98,-68,-91,-42,-91,-27,-90,-20,-97,-21,-101,-15,-98,-21,-106,-16,-113,-10,-127,-16,-128,-17,-127,-14,-119,-13,-111,-13,-98,-17,-93,-17,-93,-9,-92,-7,-82,0,-89,3,-91,7,-94,13,-95,10,-93,16,-91,14,-98,19,-98,16,-105,16,-111,13,-113,10,-114,10,-118,9,-113,7,-115,1,-116,-4,-119,1,-119,0,-119,-3,-129,-8,-126,-8,-133,-6,-125,-4,-122,-2,-124,-6,-118,-10,-108,-3,-96,0,-92,-5,-80,-10,-71,-8,-64,-5,-62,-2,-60,2,-56,0,-49,2,-47,4,-40,2,-38,1,-38,0,-40,9,-47,4,-53,0,-51,-1,-55,-2,-58,0,-48,-6,-36,-3,-6,-5,20,-6,67,-2,109,1,146,-5,183,-14,224,-45,211,-140,84,-272,-100,-379,-214,-436,-239,-478,-213,-515,-168,-525,-128,-493,-102,-413,-88,-303,-78,-207,-75,-128,-80,-67,-72,-36,-64,-19,-66,-9,-64,1,-66,4,-64,4,-68,5,-71,10,-73,9,-78,10,-82,11,-86,9,-86,12,-85,12,-90,12,-84,9,-88,14,-88,19,-92,20,-92,17,-103,16,-111,18,-108,21,-113,18,-117,19,-122,23,-121,20,-122,13,-131,10,-133,7,-137,11,-140,8,-147,7,-146,2,-139,-2,-121,-5,-118,-1,-115,11,-118,13,-113,17,-109,18,-102,23,-104,27,-110,31,-115,39,-114,40,-108,37,-108,37,-88,30,-79,23,-73,22,-71,25,-71,26,-61,23,-55,22,-55,21,-57,22,-57,22,-52,15,-52,14,-53,14,-60,7,-68,8,-79,7,-99,8,-103,1,-106,4,-107,0,-107,-1,-106,-1,-105,-6,-106,-6,-110,-10,-113,-5,-116,-6,-119,-9,-125,-7,-123,-13,-125,-13,-128,-13,-132,-12,-134,-19,-128,-18,-128,-19,-128,-19,-140,-23,-150,-29,-145,-29,-141,-28,-134,-30,-123,-34,-122,-36,-116,-35,-107,-30,-102,-26,-98,-27,-103,-20,-111,-12,-117,-4,-107,-4,-111,-3,-112,-6,-100,-10,-87,-6,-57,-1,0,11,66,9,118,0,143,-7,137,-16,79,-64,-79,-127,-247,-191,-353,-254,-385,-308,-370,-348,-338,-379,-290,-387,-230,-356,-193,-300,-177,-240,-167,-183,-155,-136,-149,-86,-149,-53,-146,-37,-141,-30,-135,-23,-134,-20,-141,-21,-146,-22,-142,-21,-139,-19,-144,-17,-148,-19,-153,-14,-154,-18,-149,-18,-155,-13,-154,-13,-158,-8,-160,-9,-166,-16,-169,-14,-172,-17,-169,-20,-164,-27,-150,-29,-136,-22,-134,-19,-141,-15,-137,-9,-128,-3,-126,0,-129,7,-133,10,-140,19,-141,16,-137,15,-137,5,-140,8,-138,5,-132,5,-130,7,-135,5,-138,0,-139,-1,-138,2,-138,-3,-134,-4,-137,-4,-125,0,-118,-3,-109,-3,-108,-10,-111,-13,-109,-9,-108,-6,-102,-10,-94,-11,-94,-9,-89,-8,-78,-6,-79,-3,-85,0,-85,3,-84,3,-88,6,-89,4,-95,9,-96,10,-101,9,-106,10,-105,11,-104,10,-109,11,-117,14,-124,11,-127,12
-131,5,-142,4,-141,0,-143,-4,-138,-8,-136,-11,-125,-18,-118,-15,-111,-5,-107,3,-104,1,-103,4,-102,0,-113,6,-117,13,-114,21,-116,22,-115,21,-112,16,-112,11,-116,11,-117,9,-123,10,-125,10,-127,11,-128,8,-127,4,-128,1,-124,1,-123,0,-121,2,-122,3,-124,0,-121,0,-127,0,-128,3,-126,3,-128,0,-131,2,-123,4,-120,1,-117,1,-110,3,-103,2,-93,8,-77,12,-29,23,33,26,83,19,111,8,113,-6,56,-50,-93,-116,-256,-186,-349,-249,-375,-299,-364,-340,-335,-378,-292,-384,-248,-343,-218,-283,-187,-221,-166,-164,-152,-121,-136,-83,-126,-57,-119,-37,-119,-23,-115,-10,-110,-3,-106,6,-105,11,-103,12,-107,21,-106,27,-103,31,-105,26,-107,22,-112,20,-118,20,-116,15,-113,17,-118,18,-118,21,-123,23,-123,19,-124,17,-122,16,-126,16,-128,17,-135,18,-135,15,-140,17,-142,8,-145,7,-149,10,-148,10,-147,6,-149,4,-154,0,-152,0,-160,-1,-156,0,-157,-7,-159,-5,-165,-9,-162,-8,-162,-8,-165,-14,-164,-9,-163,-11,-167,-17,-166,-14,-166,-16,-168,-22,-165,-21,-169,-21,-166,-22,-166,-23,-167,-24,-159,-28,-160,-25,-162,-30,-160,-36,-150,-30,-140,-30,-120,-29,-100,-22,-78,-22,-67,-16,-63,0,-60,14,-57,20,-59,28,-64,31,-64,31,-62,39,-64,39,-66,38,-66,32,-62,37,-64,36,-59,33,-52,35,-39,35,-21,37,2,41,35,48,74,58,109,48,132,31,142,8,86,-48,-81,-145,-273,-241,-368,-323,-382,-389,-344,-427,-274,-445,-209,-443,-157,-397,-124,-305,-102,-211,-86,-128,-83,-72,-80,-27,-87,-1,-85,16,-88,23,-88,26,-88,21,-87,22,-87,24,-81,34,-77,37,-77,41,-78,38,-84,39,-80,41,-84,39,-86,42,-91,40,-89,38,-92,39,-93,40,-94,37,-95,41,-102,39,-105,39,-113,40,-115,41,-116,44,-122,40,-128,35,-130,34,-131,38,-131,45,-134,42,-141,40,-141,39,-154,35,-157,42,-160,39,-156,40,-161,37,-161,30,-156,25,-156,25,-150,28,-144,36,-138,34,-137,33,-127,28,-121,30,-113,33,-102,35,-90,38,-79,40,-69,42,-63,46,-59,48,-59,51,-60,54,-63,59,-60,55,-57,58,-60,60,-61,60,-57,63,-59,62,-60,58,-61,57,-67,53,-68,55,-71,54,-76,52,-77,53,-76,52,-73,53,-74,50,-72,54,-73,50,-74,56,-79,51,-80,50,-82,47,-85,50,-86,49,-87,49,-84,45,-81,46,-79,44,-80,39,-82,40,-80,42,-85,43,-83,44,-79,46,-74,45,-69,45,-60,49,-41,48,-31,55,-20,54,-15,61,-16,73,-16,82,-22,81,-32,73,-38,66,-48,67,-54,61,-61,61,-67,65,-75,60,-85,60,-89,58,-95,54,-99,52,-98,45,-99,36,-96,35,-91,28,-84,36,-74,30,-60,32,-38,37,-2,47,53,52,99,49,126,42,149,34,135,-8,25,-105,-150,-200,-294,-273,-359,-328,-363,-367,-328,-412,-277,-432,-224,-408,-176,-352,-147,-274,-128,-194,-114,-118,-106,-59,-103,-16,-101,12,-97,25,-98,34,-100,41,-102,40,-101,43,-105,46,-105,47,-105,44,-101,45,-102,49,-105,51,-103,53,-104,51,-110,53,-110,55,-116,54,-113,54,-118,55,-115,56,-114,55,-118,56,-114,55,-116,55,-118,55,-128,56,-128,51,-131,52,-136,49,-138,44,-140,48,-140,46,-141,49,-142,46,-142,45,-143,40,-144,43,-148,40,-152,40,-148,41,-153,40,-152,36,-152,38,-149,38,-150,42,-152,33,-147,41,-149,39,-148,40,-149,42,-147,43,-143,44,-135,46,-125,40,-115,44,-105,54,-98,49,-92,48,-85,49,-80,51,-72,57,-62,57,-60,60,-56,60,-48,62,-40,61,-38,64,-38,63,-36,70,-42,70,-40,72,-44,74,-45,74,-49,73,-46,72,-48,71,-46,76,-48,72,-46,69,-53,68,-54,68,-58,69,-61,67,-62,68,-61,63,-61,62,-61,61,-60,61,-62,60,-63,60,-60,55,-64,52,-67,54,-68,50,-71,53,-68,51,-72,51,-69,52,-70,48,-69,44,-66,48,-70,42,-70,47,-75,44,-75,44,-75,44,-76,41,-76,44,-73,40,-72,45,-71,43,-72,39,-67,39,-70,37,-77,37,-76,39,-80,43,-80,38,-79,38,-79,42,-73,40,-73,39,-70,36,-73,36,-74,38,-76,36,-76,37,-75,36,-77,38,-72,39,-72,39,-70,38,-64,35,-67,34,-64,40,-70,38,-73,38,-75,36,-75,36,-74,37,-72,35,-72,35,-70,39,-68,43,-66,41,-73,39,-70,40,-70,40,-75,41,-77,41,-73,34,-76,33,-74,33,-71,36,-68,37,-70,37,-68,36,-69,35,-73,35,-72,38,-73,43,-75,40,-72,49,-69,44,-71,36,-67,39,-68,37,-66,41,-70,35,-73,33,-72,37,-76,35,-78,33,-78,33,-75,35,-70,35,-69,34,-65,38,-67,33,-65,32,-71,33,-73,34,-78,27,-73,31,-73,36,-65,33,-61,30,-55,29,-48,31,-42,31,-43,35,-41,37,-45,35
-40,38,-37,37,-32,35,-25,33,-17,35,-10,40,-4,43,-4,53,-1,56,7,56,7,50,8,54,8,54,12,54,19,48,18,46,7,43,7,37,3,34,-6,32,-15,28,-21,25,-28,24,-30,22,-36,30,-33,27,-36,25,-29,23,-26,23,-24,21,-18,24,-4,24,7,28,37,41,92,50,147,47,188,43,212,39,227,10,171,-60,20,-156,-145,-239,-251,-297,-287,-349,-274,-387,-238,-405,-192,-396,-140,-354,-101,-295,-74,-226,-61,-157,-51,-93,-46,-46,-42,-12,-36,9,-40,16,-46,16,-44,18,-40,24,-42,24,-48,25,-46,26,-45,32,-45,32,-45,34,-44,32,-43,33,-50,36,-51,38,-55,36,-57,39,-58,36,-57,36,-52,33,-53,31,-56,32,-59,34,-63,31,-62,29,-67,29,-72,34,-75,31,-73,28,-77,29,-76,25,-72,23,-73,21,-79,18,-75,19,-79,19,-86,14,-87,12,-86,13,-85,13,-86,7,-85,4,-78,5,-77,6,-78,2,-76,-1,-78,-1,-83,4,-82,-2,-82,-2,-79,-1,-72,-3,-77,-6,-70,-8,-68,-11,-64,-8,-62,-13,-56,-13,-51,-15,-51,-18,-42,-16,-44,-19,-33,-18,-27,-17,-19,-12,-11,-8,1,-11,-5,-6,-2,-4,0,-2,0,1,5,5,4,9,4,15,2,20,7,26,12,29,7,31,6,31,2,36,-3,38,-1,39,-4,43,-7,46,-8,40,-10,39,-9,44,-10,41,-7,35,-10,43,-8,43,-9,35,-13,35,-17,36,-20,34,-18,32,-17,28,-17,26,-10,26,-10,27,-9,24,-13,24,-11,26,-12,27,-14,22,-16,24,-19,23,-18,13,-19,20,-14,16,-15,10,-15,14,-16,9,-15,13,-15,15,-20,11,-22,9,-23,14,-23,9,-19,13,-19,12,-15,11,-13,17,-10,17,-14,13,-16,18,-17,13,-21,19,-21,18,-21,14,-22,15,-20,12,-20,15,-16,11,-20,15,-15,12,-19,13,-20,11,-20,15,-21,16,-20,13,-20,7,-16,8,-13,11,-11,10,-10,9,-11,13,-11,14,-14,9,-18,14,-21,14,-17,17,-16,13,-17,12,-14,9,-10,9,-10,10,-10,15,-10,9,-13,9,-15,6,-15,10,-15,12,-16,8,-12,9,-11,8,-4,5,-7,8,-2,8,1,10,4,10,9,11,7,9,12,22,12,26,17,31,21,30,26,31,25,34,21,31,24,28,28,27,23,19,16,4,9,6,4,0,0,-1,-3,-3,-8,0,-9,4,-11,7,-16,8,-14,12,-17,8,-23,10,-19,8,-17,6,-9,6,4,7,22,13,55,20,115,30,172,39,215,38,240,27,234,-2,138,-78,-44,-172,-194,-255,-266,-313,-276,-361,-248,-393,-197,-404,-144,-379,-102,-326,-67,-261,-51,-186,-36,-121,-32,-63,-32,-26,-30,-7,-24,3,-25,11,-22,12,-21,17,-25,24,-30,24,-31,22,-30,22,-36,28,-32,30,-34,25,-31,30,-24,28,-24,27,-30,26,-32,26,-33,27,-38,33,-41,26,-44,23,-47,28,-47,24,-47,24,-48,30,-49,29,-52,26,-58,23,-62,24,-68,25,-71,16,-76,12,-80,12,-84,8,-87,7,-88,9,-90,9,-93,4,-96,2,-99,-3,-105,-1,-110,-4,-115,-10,-114,-6,-117,-8,-117,-11,-119,-13,-119,-19,-120,-15,-121,-21,-125,-22,-128,-25,-129,-32,-127,-33,-122,-37,-116,-37,-103,-36,-90,-35,-84,-40,-74,-38,-69,-38,-62,-38,-49,-34,-41,-32,-36,-24,-28,-21,-18,-21,-13,-13,-4,-10,0,1,5,2,7,3,6,10,3,20,8,21,8,22,7,28,10,31,11,30,14,35,12,36,9,38,9,42,7,39,3,40,5,43,3,46,0,41,0,39,5,33,13,34,12,36,10,35,7,33,10,39,3,35,-2,24,-2,30,-9,28,-6,31,-1,28,2,28,0,26,1,30,1,32,-2,32,-3,30,-10,31,-8,31,-8,27,-8,30,-8,27,-3,29,-2,26,-3,27,-6,30,-6,28,-11,25,-11,25,-10,21,-8,23,-12,22,-11,18,-6,25,-8,23,-8,21,-9,23,-14,22,-19,19,-17,18,-14,15,-11,17,-9,16,-13,17,-12,14,-11,12,-10,14,-13,15,-11,16,-16,15,-19,16,-17,14,-19,20,-20,18,-20,17,-16,14,-15,16,-15,14,-18,16,-22,18,-18,17,-15,12,-13,13,-16,12,-20,11,-20,8,-18,10,-13,14,-12,13,-14,13,-16,13,-12,15,-14,13,-8,16,-4,21,-1,22,6,25,7,31,12,33,17,36,17,34,12,35,6,31,9,31,7,23,3,18,-4,5,-8,6,-5,7,-13,0,-14,6,-24,9,-27,17,-30,18,-40,15,-39,10,-44,9,-43,8,-37,9,-27,6,-13,3,-3,1,21,11,69,26,129,38,187,39,229,38,255,19,210,-9,68,-66,-103,-134,-228,-205,-282,-259,-282,-302,-260,-328,-227,-328,-175,-302,-128,-256,-104,-211,-83,-164,-78,-109,-66,-65,-64,-30,-68,-9,-69,5,-75,10,-78,16,-84,17,-84,20,-89,19,-88,24,-92,23,-91,24,-90,20,-94,22,-91,24
-92,23,-94,24,-96,25,-98,25,-104,21,-106,25,-108,20,-105,21,-103,21,-105,23,-107,24,-111,22,-115,21,-121,24,-126,25,-131,20,-129,16,-131,18,-138,17,-143,19,-147,12,-148,13,-151,11,-160,9,-162,3,-164,-2,-167,0,-173,-2,-178,0,-180,-8,-182,-13,-181,-10,-175,-10,-182,-11,-196,-12,-197,-17,-200,-17,-199,-22,-197,-20,-187,-24,-178,-27,-166,-36,-150,-34,-141,-29,-128,-23,-119,-18,-104,-13,-94,-12,-83,-6,-79,-2,-77,-4,-78,0,-77,11,-74,22,-75,22,-73,25,-72,29,-74,24,-76,22,-77,25,-73,23,-74,24,-77,22,-79,19,-74,19,-78,22,-78,20,-82,23,-86,20,-85,16,-84,19,-83,17,-86,17,-88,13,-84,13,-81,12,-77,8,-79,11,-83,7,-86,12,-94,10,-90,13,-92,5,-93,7,-96,4,-89,3,-87,6,-86,7,-89,2,-89,0,-90,-1,-92,0,-92,2,-88,3,-85,0,-92,0,-92,2,-86,11,-66,19,-17,32,54,31,129,23,177,5,175,-12,62,-11,-125,-16,-272,-64,-340,-126,-352,-192,-327,-236,-290,-252,-253,-256,-202,-237,-151,-201,-115,-164,-90,-125,-73,-82,-63,-54,-56,-23,-55,-4,-56,7,-64,13,-71,18,-70,23,-72,20,-72,28,-76,26,-78,27,-78,26,-78,26,-73,32,-76,31,-76,27,-78,26,-86,21,-92,21,-99,11,-99,10,-100,7,-102,5,-105,7,-111,14,-110,11,-111,5,-113,1,-116,-5,-124,-10,-128,-8,-130,-3,-134,-7,-142,-8,-148,-10,-144,-9,-145,-14,-145,-16,-154,-17,-157,-20,-161,-20,-169,-19,-173,-24,-170,-30,-172,-29,-175,-41,-172,-40,-166,-40,-163,-41,-158,-46,-147,-53,-144,-48,-139,-50,-128,-45,-121,-50,-110,-53,-108,-49,-104,-46,-89,-38,-83,-35,-75,-34,-74,-30,-69,-25,-69,-20,-77,-12,-77,-9,-77,-9,-71,3,-75,0,-75,6,-77,12,-76,10,-80,15,-80,16,-79,20,-85,17,-85,23,-88,22,-92,23,-93,21,-89,24,-86,22,-87,24,-85,26,-83,22,-91,27,-94,21,-97,22,-94,21,-92,25,-91,23,-92,26,-95,22,-95,23,-95,22,-90,22,-98,21,-100,19,-102,23,-103,23,-106,26,-104,19,-101,17,-101,25,-95,19,-94,21,-99,22,-100,25,-105,23,-104,23,-105,20,-102,19,-102,21,-102,18,-98,14,-96,18,-95,22,-93,24,-98,29,-103,22,-102,22,-107,23,-107,22,-103,20,-103,19,-100,21,-96,24,-93,27,-96,28,-92,24,-98,27,-103,23,-104,23,-104,25,-105,28,-104,31,-101,31,-101,28,-96,27,-98,32,-103,28,-103,30,-104,34,-102,32,-104,29,-104,30,-103,30,-105,30,-99,27,-96,28,-97,33,-95,30,-99,34,-103,31,-104,31,-100,28,-104,33,-103,31,-102,34,-100,34,-94,33,-95,36,-97,36,-98,33,-102,35,-99,31,-100,30,-100,35,-99,34,-99,31,-93,38,-94,42,-96,36,-95,37,-94,43,-97,45,-96,43,-96,41,-97,38,-95,45,-94,41,-92,42,-91,36,-93,32,-89,35,-92,38,-92,40,-95,43,-97,40,-96,34,-96,34,-91,35,-88,31,-86,34,-89,38,-91,42,-86,44,-88,40,-95,39,-98,43,-92,41,-93,41,-92,37,-86,40,-85,48,-85,40,-88,41,-86,40,-86,40,-89,40,-91,44,-92,40,-91,47,-87,42,-84,43,-86,42,-83,47,-84,45,-81,43,-85,41,-90,41,-90,43,-87,43,-92,45,-88,51,-85,46,-80,43,-78,45,-79,41,-83,41,-83,48,-83,48,-85,44,-89,42,-83,42,-87,44,-87,40,-81,47,-75,45,-74,43,-76,44,-77,41,-81,41,-84,42,-85,45,-81,41,-80,42,-76,43,-69,45,-59,42,-51,46,-49,51,-52,59,-55,62,-54,64,-52,66,-48,63,-48,61,-41,52,-38,52,-35,54,-44,49,-48,50,-54,44,-62,44,-73,37,-83,35,-84,41,-94,45,-92,49,-92,47,-90,43,-84,37,-83,36,-84,40,-74,47,-63,49,-42,54,2,66,68,68,120,65,146,59,175,45,164,-21,49,-125,-128,-216,-278,-276,-344,-326,-345,-363,-313,-402,-264,-395,-209,-354,-170,-292,-141,-214,-124,-140,-112,-79,-114,-26,-112,5,-110,19,-113,27,-110,37,-113,43,-112,45,-109,45,-106,44,-110,44,-109,48,-105,50,-111,52,-114,51,-123,52,-117,57,-119,56,-124,55,-119,58,-120,55,-122,56,-121,56,-122,55,-124,55,-128,55,-131,53,-135,52,-133,49,-139,54,-141,53,-139,54,-139,54,-140,53,-144,50,-151,48,-155,50,-163,49,-164,46,-165,44,-168,46,-168,43,-174,42,-173,40,-173,37,-174,42,-176,36,-177,34,-183,30,-183,32,-184,30,-189,31,-192,29,-187,24,-184,23,-180,23,-176,22,-179,21,-179,17,-178,17,-169,18,-156,16,-147,12,-137,11,-117,20,-105,24,-84,24,-72,32,-58,32,-51,37,-47,43,-47,54,-46,57,-50,66,-51,74,-46,76,-43,77,-37,76,-35,72,-37,69,-44,66,-45,66,-43,67,-37,62,-43,60,-42,62,-41,63,-43,60
-41,58,-38,59,-44,54,-48,59,-51,59,-52,59,-55,54,-50,55,-51,56,-44,59,-48,58,-47,58,-46,55,-48,57,-52,53,-54,52,-48,48,-51,48,-57,46,-50,47,-50,51,-45,50,-44,51,-44,49,-44,53,-50,54,-53,55,-49,51,-45,51,-50,55,-48,55,-59,59,-46,73,-24,78,15,78,51,61,95,37,105,5,12,-5,-149,12,-270,27,-331,42,-351,65,-349,108,-338,137,-320,122,-297,111,-264,113,-229,109,-192,98,-138,67,-75,31,-26,7,-10,12,-9,26,-3,40,-6,46,-1,49,-2,47,-10,47,-12,53,-8,50,-8,42,-13,41,-16,41,-13,36,-15,28,-19,30,-19,21,-20,18,-24,11,-34,8,-34,8,-37,12,-37,5,-39,5,-40,0,-41,-6,-41,-7,-48,-6,-47,-9,-55,-15,-56,-21,-65,-21,-65,-23,-71,-35,-77,-33,-78,-37,-75,-40,-77,-39,-80,-40,-84,-47,-89,-54,-93,-58,-96,-60,-95,-66,-92,-69,-93,-65,-84,-70,-76,-79,-68,-87,-63,-90,-51,-94,-43,-95,-38,-95,-30,-98,-24,-103,-11,-106,-7,-107,0,-99,9,-99,16,-95,17,-88,19,-71,17,-62,13,-56,9,-44,9,-26,9,-17,9,-4,9,11,7,15,3,22,-4,32,-4,35,-6,39,-11,44,-16,46,-22,47,-21,50,-25,54,-23,53,-20,54,-19,55,-19,57,-23,57,-27,60,-30,58,-32,57,-33,57,-37,58,-35,57,-33,55,-32,55,-28,55,-31,54,-31,59,-34,53,-40,51,-41,52,-43,54,-42,57,-42,57,-43,53,-40,58,-38,50,-37,53,-35,54,-39,53,-40,52,-41,50,-45,53,-45,48,-44,52,-40,50,-43,49,-38,47,-38,50,-40,47,-39,49,-41,54,-47,52,-49,55,-43,53,-44,53,-40,44,-40,51,-37,51,-39,49,-38,51,-38,47,-41,48,-49,49,-48,46,-47,49,-45,45,-46,44,-43,47,-42,44,-40,47,-40,48,-44,46,-45,45,-46,45,-50,47,-48,48,-49,42,-47,43,-43,43,-40,37,-39,39,-40,38,-40,40,-42,39,-49,46,-43,46,-48,42,-47,48,-46,45,-45,46,-39,47,-40,50,-43,51,-45,51,-44,50,-48,47,-54,40,-47,43,-44,44,-48,51,-45,43,-41,45,-43,47,-42,40,-43,41,-44,48,-41,47,-44,46,-47,43,-44,47,-43,41,-43,46,-45,44,-39,43,-39,44,-38,43,-46,41,-47,44,-47,43,-49,39,-46,43,-49,48,-48,42,-44,38,-43,38,-42,36,-41,39,-41,39,-39,35,-43,39,-43,39,-44,37,-47,39,-50,39,-44,43,-41,38,-40,42,-40,40,-41,39,-43,37,-42,35,-46,40,-42,39,-44,44,-46,42,-43,39,-45,44,-41,42,-40,41,-40,41,-37,43,-37,42,-43,40,-43,36,-41,37,-40,41,-43,37,-39,40,-36,37,-36,35,-38,41,-37,39,-39,39,-40,41,-40,34,-40,33,-40,37,-37,36,-33,41,-23,40,-18,39,-16,37,-10,41,-8,45,-15,53,-12,54,-4,53,-2,55,0,54,3,54,11,48,14,44,16,41,6,39,-2,36,-11,31,-24,31,-29,28,-38,29,-41,24,-43,28,-42,29,-44,30,-39,25,-43,30,-44,27,-46,25,-34,27,-20,28,3,37,52,51,120,52,181,48,215,46,245,19,227,-47,106,-156,-70,-239,-215,-304,-286,-350,-301,-398,-278,-426,-233,-415,-179,-369,-130,-308,-95,-244,-78,-175,-68,-113,-62,-57,-66,-20,-67,5,-66,14,-65,22,-64,21,-61,22,-59,23,-58,30,-54,30,-60,30,-60,36,-64,35,-68,36,-68,35,-70,36,-71,35,-72,37,-72,37,-67,39,-66,39,-74,34,-72,35,-72,37,-80,39,-84,38,-85,39,-83,36,-86,32,-88,38,-87,36,-87,35,-94,34,-97,32,-102,29,-106,25,-110,27,-115,26,-114,22,-114,19,-115,16,-116,15,-120,13,-125,13,-126,10,-128,12,-130,13,-133,4,-137,-1,-139,-2,-139,0,-136,-9,-136,-8,-131,-16,-135,-14,-135,-14,-134,-15,-133,-15,-128,-21,-120,-18,-109,-18,-101,-16,-88,-12,-72,-10,-57,-6,-40,-4,-27,1,-20,-1,-13,0,-17,8,-19,12,-19,17,-20,23,-20,25,-20,35,-16,32,-20,35,-20,31,-32,30,-36,30,-34,30,-32,25,-32,28,-35,30,-32,35,-36,34,-34,31,-34,31,-37,29,-37,24,-42,20,-42,23,-45,27,-46,25,-48,23,-46,22,-42,19,-47,20,-44,20,-43,18,-45,21,-46,20,-51,18,-51,17,-50,16,-54,18,-57,14,-47,17,-49,14,-44,10,-45,15,-44,12,-48,13,-48,16,-50,14,-60,14,-67,16,-69,25,-42,33,-4,21,43,7,93,-21,96,-53,-18,-58,-183,-39,-297,-18,-343,-5,-355,11,-356,39,-346,88,-336,129,-335,160,-313,170,-287,163,-256,144,-211,121,-158,78,-97,24,-52,-11,-33,-20,-28,-13,-24,-14,-22,-20,-19,-24,-18,-24,-19,-22,-22,-26,-19,-26,-20,-22,-20,-20,-14,-20,-14,-20,-11,-24,-12,-31,-14,-25,-16,-27,-14,-29,-18,-32,-22,-32,-23,-34,-25,-36,-24,-43
-21,-38,-23,-41,-24,-45,-25,-50,-30,-54,-38,-53,-38,-58,-42,-63,-41,-64,-42,-71,-42,-70,-45,-70,-44,-76,-49,-81,-51,-86,-50,-92,-54,-92,-54,-97,-50,-99,-46,-105,-44,-111,-34,-117,-23,-110,-16,-120,-6,-125,4,-132,13,-137,18,-140,26,-134,36,-137,43,-138,52,-136,56,-134,62,-131,66,-124,62,-116,61,-102,58,-96,55,-86,53,-72,43,-60,39,-46,31,-36,31,-21,27,-14,23,-1,16,3,10,13,10,16,6,22,4,30,1,31,-2,32,-3,29,0,33,-1,38,-3,43,-3,43,-4,40,-7,36,-7,40,-12,41,-17,45,-11,44,-16,42,-21,44,-15,37,-10,40,-6,42,-1,44,9,50,16,48,25,48,37,59,47,68,44,70,50,72,48,73,38,68,31,61,23,64,11,56,-2,59,-10,55,-20,57,-26,54,-33,50,-34,47,-29,45,-34,33,-32,32,-28,33,-25,33,-19,37,-18,37,-2,38,31,51,103,58,168,50,218,39,253,23,249,-23,143,-101,-45,-192,-202,-260,-280,-316,-295,-347,-273,-373,-222,-370,-168,-328,-116,-272,-79,-208,-62,-137,-50,-77,-42,-32,-42,1,-45,19,-49,28,-51,34,-49,41,-51,44,-45,47,-41,52,-38,47,-40,46,-42,49,-42,55,-51,53,-49,50,-47,49,-44,48,-52,50,-53,52,-52,52,-55,54,-52,57,-53,55,-56,52,-64,52,-70,55,-73,54,-73,54,-77,52,-78,52,-80,48,-85,50,-86,53,-94,56,-106,52,-111,50,-116,45,-122,40,-131,34,-138,38,-140,37,-138,41,-138,39,-141,38,-147,29,-154,32,-157,27,-164,26,-165,23,-166,28,-161,30,-159,25,-146,21,-138,21,-133,22,-130,17,-118,16,-112,16,-101,18,-91,20,-76,25,-64,20,-60,20,-52,24,-37,31,-32,34,-30,36,-30,42,-30,44,-30,47,-28,45,-29,48,-23,48,-23,50,-19,53,-16,57,-21,52,-24,51,-26,59,-29,57,-35,56,-37,55,-30,53,-29,55,-18,54,-23,55,-25,54,-28,52,-32,56,-35,52,-38,55,-40,54,-38,51,-40,49,-42,54,-44,50,-40,51,-43,53,-43,52,-53,53,-69,48,-75,53,-85,53,-86,50,-93,49,-94,44,-90,43,-88,42,-85,48,-80,48,-80,44,-87,42,-85,44,-86,42,-82,41,-86,47,-91,37,-91,41,-90,40,-84,41,-82,41,-86,41,-85,44,-92,41,-94,44,-93,45,-91,43,-92,44,-92,42,-88,36,-85,37,-83,37,-87,40,-84,41,-85,40,-89,37,-95,43,-92,38,-96,37,-96,42,-89,38,-88,39,-85,40,-84,38,-86,39,-96,38,-96,38,-92,39,-90,34,-96,34,-96,38,-92,38,-86,32,-88,42,-90,34,-87,38,-86,37,-89,36,-89,35,-93,35,-97,34,-100,34,-92,35,-86,38,-86,34,-89,37,-95,36,-98,36,-99,37,-96,37,-93,37,-94,41,-97,42,-92,36,-89,38,-86,42,-84,41,-87,38,-89,40,-90,38,-93,36,-92,40,-95,42,-88,41,-88,42,-85,42,-72,44,-63,45,-60,51,-63,56,-66,63,-64,67,-57,62,-58,62,-56,55,-58,53,-45,48,-42,49,-48,43,-60,42,-64,36,-76,40,-84,34,-90,33,-97,33,-101,36,-103,33,-105,29,-100,31,-100,37,-98,35,-93,32,-90,30,-80,29,-64,40,-31,52,27,68,106,63,166,60,208,52,216,21,122,-35,-53,-98,-223,-169,-329,-221,-356,-258,-342,-290,-315,-309,-278,-288,-226,-253,-178,-203,-146,-158,-134,-105,-128,-62,-126,-21,-122,2,-123,20,-116,24,-118,24,-120,26,-118,34,-116,36,-114,34,-114,32,-117,30,-118,38,-120,38,-121,40,-125,40,-122,38,-127,35,-126,35,-126,34,-122,40,-126,35,-127,40,-131,34,-135,34,-135,38,-137,36,-140,34,-145,37,-142,33,-144,29,-147,31,-149,30,-151,26,-154,28,-160,25,-164,26,-168,21,-170,20,-171,22,-174,18,-170,16,-176,14,-179,12,-180,9,-180,9,-187,8,-189,5,-189,0,-189,-4,-189,-7,-191,-8,-186,-6,-187,-11,-185,-9,-182,-10,-183,-16,-171,-17,-162,-16,-149,-15,-143,-18,-135,-17,-123,-9,-105,-7,-92,-2,-76,0,-68,2,-63,0,-66,9,-69,15,-75,21,-81,29,-82,30,-82,34,-82,34,-84,30,-83,33,-84,29,-88,27,-90,32,-97,31,-98,30,-104,27,-101,29,-102,33,-99,28,-94,26,-97,24,-97,24,-99,27,-104,27,-108,25,-109,24,-109,21,-109,21,-112,19,-110,17,-108,16,-104,20,-109,16,-109,13,-110,13,-113,11,-115,9,-119,9,-116,11,-119,11,-115,6,-106,11,-106,11,-112,10,-111,6,-110,7,-115,6,-117,10,-117,12,-108,10,-106,12,-107,21,-93,29,-52,36,16,27,91,10,145,-11,141,-37,14,-31,-182,-57,-331,-117,-394,-188,-400,-256,-378,-298,-338,-306,-284,-298,-211,-271,-150,-217,-113,-164,-91,-105,-82,-64,-86,-32,-89,-3,-84,14,-85,25,-83,23,-86,23,-85,26,-92,27,-86,25,-93,24,-101,21,-103,25,-101,18,-106,15,-108,9
-108,1,-110,0,-114,-3,-115,-2,-118,-2,-127,-1,-127,-1,-128,-6,-134,-10,-137,-5,-136,-8,-135,-10,-135,-15,-134,-17,-142,-13,-147,-11,-153,-17,-163,-21,-165,-22,-172,-24,-177,-21,-182,-27,-179,-34,-180,-32,-186,-34,-189,-37,-191,-40,-196,-40,-200,-44,-203,-45,-203,-46,-201,-50,-200,-54,-186,-54,-182,-50,-178,-57,-167,-58,-163,-57,-155,-60,-148,-58,-137,-58,-124,-55,-122,-52,-110,-45,-99,-45,-89,-40,-86,-37,-80,-30,-80,-22,-83,-16,-81,-14,-83,-5,-81,-2,-82,3,-85,3,-81,6,-80,5,-79,11,-82,18,-86,17,-86,18,-88,19,-92,14,-93,14,-92,15,-91,14,-89,18,-83,22,-84,19,-86,15,-87,17,-89,16,-100,21,-100,19,-99,18,-97,13,-92,13,-95,13,-93,17,-94,11,-96,15,-96,13,-96,12,-99,11,-99,7,-105,13,-100,9,-101,10,-93,5,-95,2,-97,3,-93,6,-95,5,-96,4,-99,4,-106,4,-105,3,-105,6,-102,0,-99,3,-98,1,-93,1,-95,-5,-94,0,-86,-1,-71,0,-59,-2,-66,0,-62,-2,-64,-4,-61,0,-55,1,-53,4,-53,3,-51,1,-57,2,-59,1,-59,1,-62,1,-63,0,-60,-4,-54,-5,-51,-6,-48,-2,-41,1,-31,0,-21,0,-12,6,0,10,8,16,8,24,16,30,16,27,15,19,9,15,2,14,-10,1,-20,5,-27,5,-38,9,-46,10,-57,10,-62,7,-64,0,-69,0,-64,-5,-67,-14,-63,-13,-61,-14,-66,-16,-64,-12,-47,-9,-39,-9,-18,0,34,9,104,4,165,0,193,-3,220,-39,200,-131,60,-228,-130,-311,-259,-365,-318,-409,-323,-458,-280,-467,-221,-441,-171,-390,-128,-318,-103,-237,-85,-167,-80,-109,-79,-67,-77,-42,-74,-26,-71,-17,-71,-14,-71,-12,-65,-12,-68,-6,-74,-7,-71,-10,-75,0,-81,0,-82,-2,-82,-2,-79,0,-81,2,-80,3,-79,0,-82,-4,-83,-2,-88,-2,-89,0,-93,0,-96,1,-99,0,-100,2,-99,0,-101,0,-103,0,-110,-4,-112,-4,-116,-8,-122,-4,-131,-7,-132,-8,-135,-10,-140,-18,-147,-15,-148,-15,-148,-17,-150,-20,-152,-22,-161,-23,-169,-22,-169,-26,-173,-28,-175,-26,-177,-30,-178,-31,-180,-36,-176,-37,-178,-41,-183,-43,-183,-46,-180,-46,-182,-51,-177,-51,-172,-56,-170,-56,-158,-56,-141,-54,-131,-50,-117,-57,-107,-53,-96,-54,-87,-52,-82,-51,-72,-49,-65,-43,-56,-37,-49,-31,-44,-29,-41,-27,-36,-21,-30,-15,-30,-10,-33,-5,-36,-8,-36,-2,-37,-3,-37,0,-36,0,-35,-1,-30,5,-32,3,-27,5,-26,10,-33,3,-35,0,-37,0,-36,4,-34,-1,-36,0,-34,-3,-34,2,-30,1,-35,-5,-34,-1,-38,-3,-41,-1,-43,-1,-41,-7,-41,-5,-43,-4,-41,-5,-41,-9,-45,-11,-41,-16,-44,-15,-44,-12,-48,-10,-48,-13,-48,-16,-51,-11,-48,-13,-45,-16,-44,-15,-40,-14,-41,-16,-42,-15,-46,-15,-51,-14,-51,-13,-51,-15,-49,-20,-49,-19,-49,-18,-46,-20,-47,-18,-44,-18,-43,-19,-47,-14,-48,-14,-53,-12,-45,-13,-47,-18,-44,-15,-45,-18,-41,-14,-42,-11,-37,-12,-40,-15,-45,-13,-49,-12,-50,-15,-49,-14,-45,-14,-49,-12,-50,-16,-50,-17,-50,-16,-45,-13,-49,-15,-49,-13,-48,-14,-53,-18,-49,-21,-48,-22,-48,-17,-46,-17,-49,-18,-45,-14,-46,-20,-44,-19,-43,-19,-47,-17,-53,-27,-55,-25,-54,-23,-54,-25,-50,-22,-49,-21,-48,-21,-50,-27,-46,-25,-47,-21,-47,-22,-53,-22,-51,-18,-53,-21,-53,-21,-54,-21,-51,-20,-46,-24,-42,-22,-41,-20,-28,-18,-25,-15,-30,-14,-23,-4,-24,0,-17,0,-12,-1,-3,0,1,0,10,0,14,-2,14,-4,3,-7,-10,-8,-20,-9,-26,-18,-40,-23,-44,-22,-50,-20,-53,-21,-51,-23,-55,-21,-60,-24,-61,-27,-54,-32,-57,-28,-58,-30,-48,-32,-33,-27,-10,-16,42,-7,111,-6,165,-6,200,-18,225,-58,204,-153,64,-245,-128,-324,-263,-376,-320,-415,-324,-471,-296,-473,-232,-437,-172,-380,-130,-318,-105,-242,-91,-169,-84,-111,-88,-74,-86,-53,-88,-42,-83,-41,-82,-33,-79,-30,-75,-23,-79,-20,-76,-24,-78,-18,-83,-19,-83,-17,-90,-19,-91,-18,-90,-20,-92,-18,-88,-19,-88,-19,-90,-16,-92,-20,-93,-20,-100,-22,-105,-22,-107,-26,-105,-19,-111,-17,-107,-17,-107,-19,-108,-14,-114,-21,-120,-22,-123,-24,-125,-24,-134,-28,-137,-27,-146,-32,-149,-35,-156,-38,-159,-39,-154,-41,-161,-44,-164,-44,-165,-44,-173,-47,-182,-54,-186,-58,-188,-52,-190,-59,-196,-58,-196,-59,-194,-66,-196,-64,-194,-62,-194,-72,-182,-72,-179,-71,-170,-69,-169,-70,-155,-68,-143,-62,-132,-64,-115,-65,-104,-60,-94,-56,-82,-60,-84,-52,-83,-51,-83,-36,-78,-36,-75,-30,-70,-28,-65,-29,-57,-29,-62,-28,-63,-29,-57,-26,-59,-23,-62,-24,-58,-24,-64,-19,-63,-18,-61,-19,-64,-21,-60,-18,-57,-19,-59,-18,-60,-12,-60,-15,-67,-17,-67,-19,-68,-14,-69,-17,-73,-14,-70,-20
-67,-18,-63,-16,-68,-14,-64,-18,-64,-14,-70,-15,-70,-18,-73,-16,-69,-16,-70,-18,-75,-19,-69,-15,-68,-22,-69,-22,-69,-22,-70,-20,-72,-21,-75,-20,-74,-20,-71,-20,-72,-24,-72,-24,-67,-18,-56,-19,-54,-16,-40,-5,-1,-2,67,-19,131,-42,183,-68,204,-107,118,-184,-65,-262,-233,-330,-314,-396,-314,-432,-272,-459,-210,-449,-143,-398,-96,-305,-72,-214,-58,-141,-45,-82,-42,-43,-41,-19,-44,-1,-43,4,-45,5,-46,8,-50,4,-54,0,-57,0,-62,-2,-66,-8,-71,-8,-70,-8,-72,-14,-74,-13,-77,-9,-80,-10,-76,-12,-79,-11,-83,-15,-85,-19,-84,-18,-84,-14,-91,-22,-90,-13,-89,-19,-92,-18,-92,-20,-97,-16,-101,-13,-110,-16,-114,-14,-120,-16,-119,-21,-126,-17,-128,-17,-129,-21,-131,-20,-139,-25,-138,-20,-145,-24,-154,-28,-156,-28,-155,-31,-162,-32,-160,-36,-158,-36,-157,-33,-159,-33,-153,-39,-143,-45,-136,-45,-128,-46,-119,-41,-108,-36,-98,-39,-88,-39,-76,-38,-62,-36,-57,-29,-49,-28,-39,-26,-41,-18,-32,-15,-35,-14,-31,-3,-31,-2,-34,-6,-34,-1,-28,2,-31,1,-32,2,-37,1,-39,1,-43,1,-45,3,-44,0,-40,0,-47,0,-45,3,-43,8,-39,7,-40,9,-39,9,-36,9,-44,5,-46,4,-50,0,-48,0,-46,4,-42,3,-45,5,-41,5,-41,-2,-44,-2,-42,2,-48,1,-49,-1,-48,3,-48,0,-47,5,-48,-1,-48,1,-45,0,-45,0,-43,6,-43,2,-36,4,-32,3,-25,4,-16,7,-7,6,11,13,23,23,21,33,27,38,20,41,7,39,0,27,-7,21,-18,14,-27,16,-37,16,-46,13,-52,11,-58,15,-62,16,-67,11,-65,5,-69,-1,-68,-10,-67,-8,-62,-3,-60,-6,-56,-9,-46,-8,-42,-2,-27,10,6,23,66,18,131,12,178,2,215,-29,206,-111,84,-202,-116,-284,-255,-340,-314,-387,-322,-433,-293,-447,-241,-409,-183,-360,-140,-285,-111,-209,-91,-140,-78,-79,-71,-41,-69,-19,-66,-2,-62,6,-61,5,-63,10,-60,13,-68,9,-65,13,-69,18,-68,15,-73,17,-68,19,-69,22,-69,20,-69,18,-69,22,-71,20,-73,20,-77,20,-79,25,-80,25,-82,28,-82,28,-82,30,-85,30,-86,28,-88,29,-93,29,-99,30,-102,24,-112,27,-116,29,-120,23,-119,23,-123,21,-122,21,-127,20,-129,19,-136,12,-143,10,-152,7,-152,6,-160,4,-159,3,-160,3,-155,-1,-162,-2,-160,1,-160,0,-161,0,-162,-7,-156,-4,-157,-12,-149,-5,-144,-14,-134,-13,-120,-16,-106,-16,-98,-15,-84,-11,-73,-13,-66,-7,-58,-5,-46,0,-42,5,-39,9,-26,11,-24,17,-20,18,-19,19,-18,21,-17,28,-22,28,-24,35,-24,37,-22,43,-24,34,-16,38,-18,40,-16,48,-16,47,-24,44,-24,42,-27,42,-27,40,-24,43,-24,47,-25,46,-23,43,-24,43,-20,40,-18,40,-21,41,-23,42,-26,40,-28,40,-28,43,-30,38,-27,41,-25,39,-24,43,-22,38,-21,37,-24,35,-32,37,-32,30,-35,31,-36,36,-31,34,-32,35,-23,36,-21,36,-24,35,-25,34,-22,34,-28,34,-31,35,-32,30,-32,36,-35,36,-32,35,-31,35,-30,37,-28,36,-32,33,-30,36,-29,38,-32,38,-37,36,-41,35,-39,40,-38,40,-38,35,-34,31,-29,33,-29,34,-30,31,-32,34,-33,31,-38,31,-39,33,-38,34,-41,32,-42,27,-44,31,-43,31,-41,36,-43,34,-43,32,-48,29,-55,32,-46,31,-41,26,-46,30,-47,34,-46,34,-47,26,-44,32,-45,30,-45,28,-48,30,-51,31,-52,30,-53,28,-53,30,-54,26,-48,30,-52,29,-59,31,-68,33,-70,29,-78,32,-86,37,-88,35,-88,30,-83,32,-83,32,-81,32,-79,29,-78,28,-74,31,-69,28,-61,33,-59,29,-59,40,-59,46,-65,48,-58,45,-56,46,-44,47,-42,38,-36,40,-30,45,-29,37,-41,35,-52,33,-61,32,-67,23,-72,27,-76,25,-79,22,-80,20,-79,19,-87,18,-87,19,-91,21,-96,16,-93,16,-86,14,-72,24,-58,25,-26,43,37,51,107,47,165,47,207,30,227,4,160,-55,-10,-126,-191,-194,-302,-239,-343,-271,-334,-306,-309,-319,-267,-295,-217,-250,-171,-204,-144,-155,-129,-105,-122,-66,-113,-30,-108,-4,-110,2,-110,12,-104,12,-104,19,-103,16,-109,16,-107,23,-108,20,-107,21,-115,25,-116,31,-116,27,-118,26,-115,25,-108,21,-112,25,-114,27,-117,24,-116,21,-123,22,-125,18,-130,25,-126,21,-128,26,-126,27,-126,20,-132,24,-137,21,-138,26,-135,27,-143,25,-150,17,-154,16,-158,15,-165,16,-167,18,-164,16,-165,14,-168,7,-170,9,-176,10,-181,8,-190,7,-188,0,-191,0,-193,-3,-195,-6,-193,-5,-196,-13,-195,-17,-197,-16,-200,-21,-203,-17,-207,-21,-199,-23,-196,-23,-196,-24,-185,-28,-176,-32,-172,-32,-160,-31,-155,-35,-140,-31,-140,-27,-134,-29,-126,-24,-119,-18,-114,-15
-107,-8,-97,-7,-88,1,-82,3,-85,1,-84,7,-79,14,-77,19,-76,24,-74,27,-69,30,-69,31,-70,40,-69,36,-64,41,-62,37,-64,38,-69,38,-70,39,-71,39,-67,37,-69,42,-67,44,-65,43,-66,43,-62,45,-58,48,-64,45,-63,42,-65,41,-67,36,-72,38,-70,35,-67,38,-70,37,-62,36,-67,39,-64,40,-63,35,-69,38,-69,35,-70,38,-73,38,-74,42,-72,45,-71,41,-69,38,-67,35,-69,39,-70,42,-69,36,-72,39,-77,40,-77,38,-76,40,-72,39,-69,37,-64,32,-62,36,-63,36,-65,38,-64,40,-60,38,-64,32,-65,33,-67,33,-64,34,-65,39,-64,42,-60,40,-58,41,-59,36,-52,39,-56,43,-58,40,-63,44,-62,34,-60,37,-64,37,-61,33,-54,33,-51,32,-51,33,-46,34,-31,33,-29,34,-31,37,-31,36,-24,40,-24,35,-28,34,-23,33,-24,31,-22,33,-22,36,-22,31,-24,27,-24,34,-21,34,-24,33,-22,35,-14,34,-8,32,0,36,3,46,2,51,6,49,7,49,10,47,7,49,6,51,5,46,7,43,9,39,7,29,0,23,1,19,-7,17,-14,15,-21,18,-26,28,-34,28,-35,26,-39,33,-39,33,-32,21,-28,23,-29,16,-29,16,-13,27,-8,34,13,47,59,53,129,49,178,43,211,32,235,-9,214,-101,82,-192,-102,-262,-237,-314,-302,-354,-306,-390,-282,-405,-231,-373,-170,-321,-123,-257,-87,-189,-68,-118,-52,-66,-43,-26,-44,-2,-45,10,-45,19,-46,25,-42,29,-47,35,-43,35,-45,38,-44,37,-44,42,-40,36,-39,39,-42,45,-44,41,-47,44,-51,47,-51,43,-49,40,-54,38,-49,40,-52,46,-50,41,-52,42,-60,41,-64,47,-69,38,-72,42,-72,45,-79,43,-77,41,-77,40,-84,39,-87,41,-95,37,-105,36,-108,42,-117,34,-120,32,-126,29,-126,24,-135,22,-143,18,-142,14,-150,12,-154,8,-153,2,-162,5,-172,1,-169,-4,-175,-8,-180,-9,-186,-17,-184,-22,-178,-19,-177,-20,-172,-30,-172,-37,-170,-40,-164,-38,-152,-39,-142,-39,-132,-37,-122,-37,-106,-32,-92,-28,-77,-24,-70,-19,-60,-16,-53,-10,-51,-3,-40,-4,-36,4,-30,8,-26,16,-23,20,-16,23,-13,28,-12,32,-13,33,-14,35,-14,37,-19,40,-16,44,-13,40,-15,40,-13,39,-11,43,-10,45,-10,43,-12,45,-10,47,-19,46,-19,46,-21,45,-19,47,-20,45,-21,45,-16,46,-16,43,-16,41,-17,41,-20,41,-20,35,-27,33,-26,35,-27,39,-26,32,-24,31,-21,32,-26,30,-23,31,-24,27,-23,29,-27,33,-31,33,-37,29,-36,30,-32,31,-35,26,-24,28,-28,32,-24,28,-27,34,-27,35,-32,33,-32,29,-34,29,-32,30,-37,26,-32,28,-33,28,-29,27,-29,24,-30,21,-27,24,-31,23,-34,23,-32,26,-35,25,-34,23,-33,24,-32,28,-30,29,-28,28,-26,23,-29,25,-33,20,-33,18,-33,26,-38,21,-35,28,-32,21,-33,24,-29,19,-30,22,-35,22,-32,23,-33,24,-31,26,-31,22,-32,25,-25,27,-19,29,-10,31,-1,39,-1,38,-1,41,3,39,5,44,2,43,-3,39,-3,34,-2,33,-4,22,-10,18,-10,12,-14,6,-20,8,-22,9,-29,18,-39,23,-40,22,-40,24,-47,22,-47,16,-44,16,-40,13,-40,16,-30,11,-18,18,-9,29,20,40,79,41,150,34,195,30,227,7,245,-69,177,-172,0,-252,-173,-314,-277,-356,-311,-401,-297,-432,-256,-403,-198,-351,-145,-288,-105,-214,-82,-142,-63,-81,-56,-36,-53,-6,-56,6,-56,11,-56,14,-55,19,-56,22,-58,27,-55,26,-55,30,-51,30,-50,31,-50,30,-57,30,-59,31,-63,36,-66,33,-66,35,-64,34,-64,33,-64,34,-60,36,-62,35,-65,37,-67,33,-64,35,-74,33,-76,37,-78,34,-83,31,-84,29,-92,30,-93,30,-95,30,-97,29,-103,28,-109,27,-119,22,-126,24,-129,17,-135,14,-141,10,-148,8,-148,5,-151,4,-154,2,-162,-2,-165,0,-168,-3,-175,-8,-181,-12,-183,-16,-187,-18,-184,-21,-184,-24,-177,-25,-171,-29,-164,-28,-158,-30,-148,-34,-143,-35,-136,-33,-120,-32,-108,-30,-96,-30,-83,-28,-69,-23,-58,-18,-48,-14,-42,-6,-37,-2,-36,0,-27,4,-22,15,-21,14,-18,14,-15,19,-12,27,-13,26,-8,34,-16,36,-13,37,-18,33,-20,32,-20,33,-16,39,-15,38,-11,37,-10,34,-11,32,-10,33,-11,33,-14,35,-20,31,-22,30,-21,25,-19,27,-20,28,-17,27,-15,26,-12,26,-14,23,-16,22,-19,28,-19,27,-23,22,-24,21,-23,20,-25,23,-22,27,-16,24,-16,21,-18,24,-25,24,-22,30,-28,34,-23,21,-24,24,-22,22,-23,18,-23,20,-22,20,-22,25,-22,24,-24,27,-21,20,-22,21,-26,17,-22,19,-28,16,-31,23,-25,27,-20,27,-18,30,-18,28,-19,26,-23,23,-25,21,-23,25,-28,23
-26,22,-21,21,-24,24,-23,23,-18,22,-15,22,-17,25,-19,27,-23,26,-27,24,-27,27,-28,27,-24,28,-23,25,-23,23,-18,23,-18,27,-17,30,-16,26,-16,26,-14,24,-9,31,-3,32,2,40,1,45,7,53,14,53,18,48,23,52,18,50,11,49,12,45,13,36,12,25,10,16,5,11,-2,15,-8,18,-9,25,-12,23,-18,26,-20,27,-28,27,-32,23,-31,25,-26,26,-28,25,-23,24,-12,30,4,32,23,45,64,53,132,48,191,47,222,40,255,-10,253,-105,151,-192,-38,-263,-192,-320,-268,-356,-281,-397,-256,-405,-206,-372,-153,-310,-104,-243,-77,-159,-52,-93,-45,-43,-38,-5,-32,22,-31,32,-29,41,-27,38,-27,36,-28,40,-28,48,-30,49,-32,46,-31,51,-32,56,-31,54,-26,56,-29,59,-30,59,-34,63,-34,57,-33,67,-36,62,-39,60,-41,64,-40,64,-44,61,-43,61,-43,61,-46,65,-50,63,-52,64,-57,63,-66,61,-64,60,-75,54,-75,55,-82,52,-83,57,-87,55,-89,50,-94,50,-96,48,-105,43,-116,39,-124,40,-123,39,-122,35,-127,29,-131,30,-132,30,-138,20,-143,17,-139,18,-151,16,-154,12,-154,7,-150,9,-153,6,-149,2,-141,0,-128,-2,-114,-2,-103,-2,-94,-4,-85,-3,-75,-3,-59,-1,-46,5,-39,8,-34,13,-19,20,-7,29,0,30,5,35,9,46,11,44,12,46,11,51,15,59,13,61,18,61,19,60,24,65,21,67,20,66,23,69,24,77,25,71,19,70,12,72,12,73,13,72,12,72,13,70,15,66,16,71,17,69,21,65,15,65,15,63,13,62,10,67,6,67,6,58,13,66,18,68,19,66,15,63,9,70,9,63,6,59,9,54,8,49,6,51,2,59,4,54,5,55,4,52,5,49,7,52,2,55,-1,47,-3,46,1,46,0,51,0,51,4,57,1,49,1,42,-1,44,7,40,3,43,1,50,-2,53,-6,49,-6,46,-3,44,-6,45,-4,46,-2,48,-3,45,-3,46,-5,45,-7,50,-7,40,-6,41,-8,46,-8,47,-8,45,-3,48,0,46,-3,43,-4,42,-8,42,-8,46,-6,51,-6,42,-8,46,-9,47,-9,44,-6,39,0,46,2,48,0,52,0,58,8,63,1,71,7,67,6,68,14,66,18,66,21,63,19,65,24,60,20,54,13,46,10,46,0,40,-9,40,-14,42,-20,47,-28,51,-30,47,-32,48,-34,43,-32,45,-36,41,-35,43,-37,42,-31,39,-13,39,-3,54,22,67,74,74,147,76,204,66,252,45,273,-5,201,-72,18,-147,-164,-213,-277,-256,-325,-299,-324,-315,-294,-311,-246,-266,-187,-212,-144,-164,-115,-109,-99,-54,-93,-8,-93,20,-93,33,-94,39,-89,46,-86,45,-86,50,-78,52,-82,54,-79,55,-81,56,-78,52,-88,55,-85,56,-92,57,-91,53,-88,58,-87,57,-88,60,-89,59,-91,59,-91,61,-92,59,-92,60,-97,59,-97,62,-102,62,-103,60,-107,59,-107,61,-108,59,-104,63,-106,60,-115,53,-130,54,-133,57,-141,56,-142,54,-143,54,-153,55,-154,50,-159,46,-165,46,-170,38,-174,37,-179,37,-186,35,-188,39,-197,33,-201,27,-197,27,-198,27,-200,24,-200,24,-200,18,-200,18,-202,15,-187,12,-182,13,-177,7,-168,11,-151,12,-136,11,-129,10,-116,11,-107,16,-98,19,-97,24,-94,28,-93,30,-83,34,-74,44,-71,49,-67,52,-63,61,-61,63,-60,70,-59,67,-56,68,-61,67,-62,73,-58,71,-58,75,-54,77,-48,71,-46,72,-50,68,-46,74,-54,75,-56,73,-56,71,-56,70,-56,72,-56,76,-52,75,-47,74,-50,77,-55,70,-53,68,-56,73,-58,70,-63,70,-62,68,-60,66,-63,71,-66,63,-66,66,-63,65,-61,65,-57,68,-59,69,-65,65,-72,62,-71,59,-71,65,-70,63,-66,60,-69,59,-70,60,-65,56,-65,62,-66,59,-69,61,-69,57,-72,55,-78,57,-74,56,-71,54,-68,54,-71,58,-68,56,-69,59,-71,60,-72,57,-82,59,-81,56,-77,53,-77,52,-77,53,-73,52,-74,57,-73,55,-71,51,-74,53,-76,50,-76,53,-82,50,-83,54,-85,56,-78,52,-74,49,-73,49,-74,48,-77,46,-76,48,-74,46,-81,48,-79,46,-80,52,-70,50,-66,48,-55,54,-49,55,-48,61,-48,59,-48,61,-44,63,-45,60,-47,60,-52,54,-50,54,-50,46,-53,36,-56,33,-59,30,-63,29,-68,30,-74,33,-85,38,-90,37,-93,39,-95,40,-94,44,-93,36,-88,32,-81,31,-79,35,-64,36,-56,48,-38,60,7,69,78,68,128,60,162,39,187,-11,151,-89,-2,-165,-186,-228,-309,-273,-359,-308,-349,-341,-329,-333,-284,-302,-226,-243,-177,-186,-146,-130,-125,-79,-115,-35,-101,0,-103,14,-101,27,-105,33,-104,37,-105,39,-106,45,-106,41,-106,41,-108,42,-105,43,-105,38,-105,39,-107,39,-106,41
-109,42,-113,47,-105,52,-115,43,-112,41,-108,42,-111,43,-113,46,-114,46,-114,48,-118,44,-126,45,-127,48,-132,45,-133,39,-138,41,-142,41,-138,38,-143,38,-149,41,-153,39,-160,35,-168,34,-176,38,-182,29,-187,25,-190,28,-195,22,-198,20,-202,16,-205,11,-211,8,-216,4,-221,4,-228,0,-231,-2,-232,-5,-232,-6,-237,-10,-237,-9,-230,-17,-222,-22,-218,-24,-208,-29,-202,-30,-196,-29,-186,-28,-174,-25,-156,-20,-150,-14,-138,-16,-126,-11,-115,-10,-107,-4,-97,2,-96,8,-91,10,-86,18,-85,18,-81,25,-79,28,-78,31,-70,41,-69,38,-63,38,-66,39,-65,39,-67,48,-66,46,-71,47,-70,47,-70,50,-68,47,-63,51,-60,46,-60,49,-62,52,-62,48,-67,48,-67,46,-68,48,-72,44,-68,44,-70,41,-66,38,-66,33,-67,31,-68,38,-70,38,-72,42,-73,44,-73,36,-76,35,-78,36,-76,36,-79,38,-74,36,-74,34,-74,33,-72,29,-75,30,-79,22,-81,28,-84,29,-84,30,-84,29,-80,29,-76,29,-76,24,-80,28,-76,29,-82,27,-81,27,-84,30,-81,26,-68,17,-58,20,-61,26,-60,23,-55,16,-55,20,-56,20,-54,17,-57,20,-61,24,-62,21,-61,21,-58,20,-58,26,-56,25,-54,25,-51,23,-48,24,-47,25,-48,22,-49,19,-52,22,-50,21,-52,18,-48,22,-49,21,-43,18,-42,20,-43,19,-38,21,-38,23,-33,28,-33,24,-26,31,-27,38,-23,41,-21,41,-13,46,-12,44,-14,39,-17,32,-20,28,-17,14,-26,4,-32,4,-37,2,-42,2,-47,9,-49,14,-49,13,-50,14,-57,8,-59,14,-64,13,-65,8,-60,6,-61,5,-57,11,-39,14,-25,25,3,33,61,34,132,24,177,23,205,-8,226,-96,192,-195,33,-278,-156,-334,-283,-370,-332,-420,-338,-462,-307,-445,-241,-387,-186,-333,-139,-258,-112,-180,-97,-118,-82,-64,-82,-30,-82,-11,-80,1,-76,2,-74,4,-69,3,-72,10,-72,13,-76,12,-78,19,-79,18,-81,16,-77,14,-77,17,-78,15,-79,18,-80,15,-80,14,-80,13,-85,16,-92,13,-90,17,-93,12,-95,15,-98,14,-95,15,-100,21,-98,19,-102,20,-106,17,-108,17,-116,13,-121,11,-126,13,-131,10,-132,12,-139,10,-136,12,-144,9,-143,3,-154,2,-161,2,-165,0,-175,0,-180,-3,-186,-9,-184,-8,-191,-14,-194,-8,-194,-12,-201,-16,-204,-24,-208,-27,-206,-31,-210,-34,-210,-36,-202,-34,-200,-32,-196,-35,-184,-36,-171,-38,-161,-36,-148,-35,-137,-39,-130,-36,-116,-38,-109,-35,-98,-34,-88,-26,-76,-16,-69,-12,-59,-10,-49,-4,-49,-5,-46,1,-47,7,-48,8,-48,9,-44,5,-46,11,-48,13,-45,7,-42,12,-39,16,-40,16,-41,19,-48,19,-51,21,-49,18,-54,19,-50,19,-48,21,-48,16,-46,14,-45,16,-47,12,-50,14,-46,16,-47,14,-51,15,-51,16,-54,13,-55,11,-51,5,-52,4,-51,5,-52,4,-50,4,-52,7,-53,11,-57,7,-58,6,-58,6,-58,3,-57,0,-57,5,-52,3,-51,0,-54,0,-55,1,-58,3,-60,2,-59,3,-59,1,-58,1,-59,3,-55,4,-56,5,-51,5,-54,0,-53,2,-57,3,-59,2,-60,6,-58,4,-56,8,-57,8,-55,2,-51,0,-51,2,-51,4,-56,2,-59,5,-62,1,-57,2,-64,0,-60,7,-58,3,-60,-2,-56,1,-54,2,-52,0,-59,-2,-56,-2,-57,3,-58,3,-57,0,-54,2,-50,1,-46,3,-40,6,-35,8,-30,16,-28,19,-27,20,-30,24,-29,22,-26,18,-34,12,-34,10,-32,2,-28,-8,-34,-10,-42,-15,-41,-12,-48,-12,-58,-5,-62,-1,-67,-1,-72,-5,-74,-6,-74,-10,-68,-13,-66,-6,-65,-9,-61,-9,-54,-6,-45,2,-24,14,28,12,102,9,158,7,191,-18,222,-96,196,-198,43,-283,-149,-340,-274,-379,-326,-421,-329,-466,-303,-432,-237,-369,-185,-306,-144,-234,-116,-158,-98,-104,-87,-58,-83,-34,-84,-20,-84,-10,-87,-6,-90,0,-86,-3,-90,2,-91,1,-88,4,-86,2,-86,0,-85,0,-85,0,-89,4,-90,4,-93,7,-97,9,-98,6,-97,6,-98,4,-96,7,-92,4,-93,4,-98,5,-101,4,-105,5,-110,2,-112,-2,-113,4,-118,2,-125,2,-124,-4,-126,-2,-132,-9,-134,-6,-143,-4,-148,-6,-157,-8,-162,-12,-166,-17,-169,-20,-180,-22,-178,-28,-182,-25,-188,-32,-191,-38,-199,-38,-204,-40,-210,-41,-214,-40,-218,-45,-223,-47,-219,-48,-216,-52,-214,-61,-206,-61,-200,-60,-196,-64,-188,-60,-183,-64,-174,-62,-161,-60,-149,-60,-133,-61,-124,-53,-111,-51,-99,-48,-88,-42,-81,-30,-74,-23,-75,-24,-71,-21,-69,-17,-70,-15,-66,-10,-63,-7,-53,-9,-52,-2,-56,1,-56,8,-57,9,-61,10,-57,8,-54,5,-61,4,-61,4,-56,7,-53,8,-52,8,-51,3,-53,6,-54,7,-61,7,-61,7,-62,9,-61,8,-67,5,-60,5,-60,0
-61,4,-61,4,-63,5,-63,5,-65,4,-68,2,-68,4,-68,3,-69,1,-64,-1,-64,-3,-67,0,-61,3,-62,0,-67,-1,-72,2,-72,-2,-72,-3,-70,-1,-72,-2,-71,0,-69,0,-68,-8,-66,-8,-62,0,-68,-5,-69,-7,-70,-3,-73,-4,-72,-7,-72,-8,-70,-10,-66,-10,-64,-10,-63,-12,-68,-6,-64,-1,-70,-2,-73,-8,-70,-7,-67,-10,-66,-7,-65,-1,-65,-8,-63,-8,-58,-11,-62,-7,-68,-9,-67,-11,-70,-8,-70,-7,-67,-13,-64,-12,-64,-8,-60,-7,-56,-6,-56,-8,-49,-6,-44,-8,-40,-3,-43,3,-39,7,-35,14,-34,14,-29,10,-22,10,-24,10,-25,4,-19,-5,-25,-13,-34,-24,-43,-26,-48,-29,-48,-29,-54,-25,-60,-15,-62,-15,-60,-15,-64,-21,-63,-15,-60,-20,-67,-19,-66,-19,-63,-18,-54,-16,-41,-13,-28,-1,22,5,92,6,157,-4,200,-16,235,-64,231,-151,109,-236,-89,-307,-251,-354,-327,-397,-335,-433,-319,-433,-261,-381,-197,-321,-145,-264,-107,-193,-93,-131,-85,-81,-77,-52,-75,-34,-77,-23,-75,-22,-74,-19,-68,-12,-67,-12,-68,-10,-72,-16,-75,-12,-79,-11,-76,-11,-84,-12,-85,-10,-81,-12,-83,-12,-85,-12,-84,-4,-82,-6,-80,-10,-84,-6,-86,-8,-88,-6,-91,-6,-92,-7,-96,-5,-101,-9,-102,-9,-101,-4,-100,-7,-104,-12,-106,-9,-115,-10,-124,-7,-128,-9,-135,-15,-139,-14,-146,-16,-152,-23,-150,-18,-156,-22,-161,-23,-168,-26,-173,-27,-183,-32,-189,-34,-189,-42,-193,-46,-196,-46,-197,-49,-199,-55,-200,-58,-198,-62,-200,-57,-202,-62,-204,-64,-199,-67,-198,-61,-188,-66,-181,-68,-164,-73,-151,-67,-137,-69,-130,-61,-120,-65,-115,-53,-112,-52,-99,-51,-93,-47,-87,-40,-78,-38,-72,-27,-69,-26,-65,-21,-68,-19,-80,-12,-96,-12,-99,-9,-105,-12,-98,-9,-95,-6,-99,-5,-96,-2,-92,-2,-89,-3,-92,-3,-91,2,-96,1,-96,-3,-98,-4,-102,-6,-104,-2,-100,0,-99,1,-99,-3,-91,-2,-90,-2,-94,-5,-96,-5,-97,-8,-98,-8,-99,-13,-100,-12,-103,-11,-102,-10,-101,-7,-102,-10,-103,-7,-98,-13,-95,-12,-100,-15,-107,-14,-110,-16,-108,-16,-104,-17,-101,-19,-103,-16,-104,-16,-105,-18,-106,-17,-106,-23,-108,-20,-108,-16,-111,-8,-110,-13,-100,-18,-105,-16,-104,-18,-105,-17,-105,-18,-103,-20,-104,-15,-101,-12,-104,-19,-110,-22,-108,-21,-106,-25,-104,-23,-102,-21,-106,-24,-103,-23,-111,-24,-111,-21,-109,-19,-106,-18,-108,-18,-110,-21,-112,-23,-111,-20,-111,-21,-98,-22,-101,-23,-99,-23,-96,-24,-96,-21,-102,-23,-98,-23,-94,-25,-91,-16,-85,-5,-87,-2,-80,1,-82,1,-77,-4,-69,-4,-74,-8,-78,-3,-80,-3,-81,-15,-81,-23,-92,-27,-96,-28,-93,-32,-93,-30,-102,-28,-108,-26,-108,-24,-116,-18,-117,-22,-118,-28,-113,-26,-113,-30,-109,-25,-92,-23,-77,-6,-55,3,-19,10,39,6,104,2,147,-10,189,-44,193,-108,90,-173,-100,-236,-254,-283,-336,-319,-346,-360,-333,-373,-313,-340,-262,-294,-211,-241,-171,-192,-149,-141,-140,-93,-128,-59,-120,-34,-117,-28,-116,-23,-111,-18,-110,-13,-117,-8,-118,-11,-113,-11,-115,-9,-119,-6,-122,-8,-116,-5,-114,-1,-116,1,-116,-2,-119,-5,-120,-3,-124,-3,-122,-4,-118,0,-122,0,-122,0,-121,3,-121,-3,-120,2,-118,4,-123,0,-127,0,-133,2,-138,5,-140,5,-147,2,-148,0,-153,-3,-152,0,-155,1,-163,-3,-171,-7,-175,-10,-185,-9,-190,-11,-195,-10,-200,-16,-199,-18,-206,-19,-208,-27,-212,-25,-214,-28,-221,-27,-226,-31,-226,-32,-230,-40,-234,-44,-233,-43,-238,-50,-230,-50,-221,-54,-215,-56,-206,-57,-195,-55,-184,-45,-175,-48,-171,-51,-160,-50,-148,-52,-137,-44,-127,-41,-114,-37,-111,-32,-107,-24,-98,-20,-96,-18,-96,-10,-94,-5,-91,-7,-89,-5,-91,-4,-87,5,-84,8,-80,5,-80,3,-77,4,-76,7,-77,6,-82,7,-79,5,-79,0,-83,6,-79,7,-75,9,-72,9,-73,9,-70,6,-74,11,-78,13,-77,9,-80,9,-83,11,-80,10,-82,7,-78,9,-77,15,-80,10,-78,10,-78,13,-82,5,-84,6,-88,10,-91,6,-82,2,-81,3,-78,3,-80,7,-76,10,-79,3,-77,4,-82,6,-84,1,-85,2,-87,2,-87,1,-85,3,-87,3,-82,4,-82,5,-82,3,-78,0,-87,0,-85,0,-87,0,-91,2,-87,2,-89,0,-89,-2,-82,-1,-82,1,-84,0,-83,0,-86,-3,-86,1,-92,-2,-88,-1,-87,0,-87,-6,-87,-5,-84,-2,-83,-10,-78,-8,-79,-3,-80,-6,-84,-7,-86,-6,-86,-11,-91,-12,-86,-10,-82,-6,-80,-7,-74,-8,-71,-7,-67,-10,-61,-4,-54,-4,-56,0,-54,13,-55,16,-59,9,-52,9,-52,9,-53,8,-49,3,-46,-2,-51,-18,-56,-19,-64,-18,-66,-19,-69,-22,-77,-12,-81,-13,-83,-16,-80,-15,-83,-17,-85,-22,-84,-21,-82,-22,-83,-25,-76,-20,-64,-13,-52,-2,-16,8,52,6
117,7,156,-6,187,-60,197,-152,112,-239,-79,-303,-249,-353,-335,-400,-353,-449,-343,-459,-298,-405,-228,-336,-178,-274,-136,-204,-121,-142,-110,-92,-107,-55,-105,-32,-103,-23,-99,-23,-96,-16,-98,-12,-91,-9,-91,-7,-94,-2,-91,1,-94,0,-96,-4,-100,4,-101,2,-104,3,-100,0,-99,1,-97,4,-99,2,-98,1,-99,6,-101,7,-103,1,-108,1,-112,2,-110,4,-114,8,-114,4,-113,5,-113,11,-117,4,-125,-1,-123,2,-130,0,-141,-1,-145,-3,-147,0,-152,-4,-157,-2,-161,-5,-163,-9,-168,-9,-176,-13,-178,-17,-185,-21,-193,-30,-195,-29,-200,-28,-203,-31,-209,-36,-216,-37,-211,-41,-214,-39,-215,-46,-210,-47,-209,-51,-215,-48,-210,-53,-200,-54,-191,-59,-182,-57,-172,-54,-157,-53,-144,-51,-130,-54,-120,-50,-107,-42,-102,-37,-91,-36,-85,-34,-76,-30,-67,-22,-60,-15,-37,-11,-24,-8,-24,-5,-23,-1,-23,0,-26,0,-27,3,-25,5,-25,8,-26,9,-22,9,-20,11,-14,17,-15,16,-18,15,-20,22,-20,20,-24,14,-26,15,-23,12,-22,17,-22,16,-19,10,-17,12,-16,16,-16,15,-17,16,-20,10,-25,14,-25,9,-22,9,-25,3,-26,5,-24,7,-23,8,-23,7,-19,8,-22,9,-24,7,-27,4,-28,3,-28,2,-33,4,-34,2,-28,0,-23,2,-24,5,-22,-3,-24,1,-26,-1,-30,0,-27,-1,-27,3,-29,-1,-32,0,-26,-3,-25,0,-26,-4,-24,-4,-22,-8,-24,-2,-27,-6,-26,0,-25,-4,-26,-6,-26,-3,-28,-1,-20,-3,-23,-5,-20,-12,-20,-8,-20,-9,-20,-4,-25,-8,-24,-10,-25,-11,-25,-5,-23,-4,-20,-3,-14,-2,-14,-7,-13,-9,-17,-9,-14,-11,-15,-8,-14,-9,-7,-4,-3,-2,2,11,5,10,9,24,10,23,15,16,12,12,15,12,3,13,4,2,5,-9,3,-10,-5,-14,-7,-13,-7,-14,-11,-12,-14,-9,-17,-8,-20,-18,-26,-12,-28,-9,-29,-7,-26,-9,-30,-10,-30,-12,-25,-8,-3,-2,6,8,46,9,116,9,179,4,212,-9,245,-83,258,-180,172,-273,-21,-335,-187,-372,-267,-409,-278,-448,-259,-442,-216,-396,-168,-334,-126,-259,-92,-186,-73,-128,-63,-79,-57,-51,-53,-34,-51,-18,-43,-14,-47,-10,-45,-15,-48,-10,-48,-12,-48,-6,-47,-7,-47,-8,-54,-5,-49,-5,-52,0,-50,-3,-50,0,-54,-3,-50,0,-60,-2,-58,1,-59,0,-59,0,-59,5,-62,0,-61,6,-59,5,-60,2,-67,1,-68,1,-70,0,-72,0,-79,0,-84,1,-86,3,-94,1,-96,0,-98,-2,-100,-4,-106,-5,-111,-4,-121,-4,-125,-11,-134,-15,-133,-16,-141,-12,-148,-17,-146,-21,-149,-25,-153,-28,-159,-32,-162,-37,-171,-42,-168,-44,-175,-41,-176,-45,-179,-49,-178,-46,-169,-53,-158,-53,-152,-51,-140,-52,-128,-57,-116,-56,-109,-52,-99,-50,-90,-50,-75,-46,-62,-44,-50,-43,-42,-40,-28,-36,-26,-27,-20,-21,-20,-18,-18,-17,-15,-12,-15,-7,-11,-6,-8,-3,-10,-1,-11,3,-8,3,-9,4,-8,6,-6,6,-6,7,-10,6,-11,9,-17,5,-15,2,-10,5,-16,3,-9,3,-14,5,-9,3,-7,3,-6,1,-11,4,-10,9,-11,3,-6,0,-13,-4,-15,2,-17,0,-14,-4,-16,-5,-15,-3,-18,-3,-18,-4,-21,-6,-23,-8,-27,-7,-25,-9,-27,-8,-26,-12,-22,-9,-19,-13,-16,-10,-17,-6,-21,-6,-25,-5,-29,-7,-30,-15,-26,-10,-32,-14,-30,-13,-26,-13,-30,-16,-27,-19,-23,-18,-26,-13,-31,-16,-33,-19,-35,-13,-31,-10,-34,-10,-31,-14,-29,-19,-23,-23,-20,-23,-22,-21,-25,-21,-27,-16,-35,-18,-30,-20,-33,-17,-31,-17,-28,-16,-28,-16,-23,-19,-26,-19,-27,-21,-27,-20,-26,-16,-30,-20,-30,-20,-31,-18,-30,-16,-24,-14,-24,-15,-12,-15,-2,-14,3,-7,-1,-4,1,2,-1,5,-3,2,-2,0,-8,-9,-9,-12,-6,-19,0,-28,-6,-30,-14,-32,-15,-35,-20,-35,-29,-31,-33,-30,-35,-29,-41,-31,-46,-25,-43,-26,-44,-23,-39,-30,-36,-30,-38,-28,-32,-24,-17,-16,-9,-3,23,2,80,-1,155,-4,203,-19,243,-53,269,-127,190,-199,3,-266,-171,-318,-281,-356,-317,-394,-305,-405,-281,-381,-231,-329,-179,-272,-139,-218,-104,-165,-84,-117,-72,-80,-68,-56,-73,-43,-80,-29,-84,-30,-82,-27,-88,-22,-93,-23,-94,-20,-90,-16,-87,-17,-93,-23,-95,-26,-94,-23,-100,-24,-104,-20,-104,-17,-102,-23,-103,-21,-105,-22,-104,-26,-98,-22,-100,-22,-103,-22,-102,-22,-109,-18,-114,-28,-115,-27,-120,-27,-124,-28,-125,-32,-127,-32,-128,-31,-128,-32,-131,-33,-138,-29,-144,-31,-149,-30,-155,-37,-160,-39,-168,-41,-168,-40,-176,-44,-178,-48,-184,-52,-184,-58,-189,-60,-196,-62,-204,-62,-213,-68,-211,-64,-211,-71,-217,-76,-218,-75,-216,-79,-212,-82,-210,-84,-206,-88,-207,-87,-198,-91,-196,-93,-185,-100,-177,-97,-162,-94,-149,-93,-137,-90,-127,-83,-119,-76,-116,-73,-108,-70,-100,-68
-94,-60,-93,-56,-89,-52,-84,-46,-83,-40,-79,-38,-74,-35,-72,-39,-80,-29,-80,-31,-80,-32,-83,-35,-81,-27,-75,-31,-80,-30,-82,-29,-82,-25,-81,-25,-74,-23,-73,-21,-76,-24,-76,-25,-83,-24,-85,-27,-85,-28,-86,-32,-88,-28,-89,-29,-81,-29,-80,-29,-80,-25,-80,-23,-85,-29,-89,-36,-94,-32,-97,-31,-99,-33,-100,-28,-95,-31,-84,-31,-90,-30,-93,-31,-95,-32,-94,-34,-98,-30,-101,-32,-100,-37,-102,-35,-96,-37,-96,-39,-92,-40,-93,-40,-85,-34,-90,-42,-100,-42,-102,-40,-104,-42,-106,-43,-102,-37,-99,-38,-98,-38,-101,-33,-103,-34,-95,-38,-87,-41,-89,-35,-94,-32,-106,-39,-102,-41,-101,-43,-102,-39,-105,-32,-106,-41,-102,-37,-99,-38,-99,-39,-97,-35,-100,-34,-103,-35,-107,-37,-102,-38,-101,-42,-96,-41,-94,-41,-90,-42,-90,-47,-84,-45,-77,-32,-74,-28,-74,-26,-72,-25,-74,-25,-76,-23,-74,-23,-67,-19,-69,-25,-67,-30,-62,-35,-71,-47,-76,-49,-85,-54,-90,-54,-88,-55,-88,-48,-98,-44,-98,-42,-99,-45,-99,-45,-106,-48,-106,-50,-101,-47,-99,-47,-95,-50,-79,-45,-69,-29,-37,-16,21,-19,97,-20,146,-36,184,-59,194,-118,114,-190,-70,-256,-234,-304,-331,-336,-357,-369,-342,-398,-314,-368,-267,-319,-210,-267,-172,-217,-143,-174,-136,-128,-123,-93,-122,-63,-120,-60,-120,-52,-122,-49,-115,-54,-112,-49,-111,-47,-110,-46,-106,-38,-112,-37,-112,-39,-114,-38,-116,-41,-117,-41,-122,-37,-116,-39,-117,-39,-116,-32,-115,-29,-114,-36,-113,-41,-116,-40,-123,-34,-130,-35,-127,-37,-126,-38,-125,-35,-120,-36,-127,-40,-134,-44,-138,-39,-140,-37,-155,-35,-154,-41,-157,-43,-160,-46,-167,-45,-176,-44,-178,-48,-182,-48,-185,-56,-191,-55,-192,-56,-200,-58,-210,-61,-212,-64,-216,-64,-226,-70,-225,-72,-224,-77,-222,-78,-224,-77,-229,-82,-231,-85,-233,-88,-229,-92,-222,-90,-214,-88,-205,-88,-196,-90,-188,-91,-178,-88,-163,-89,-151,-80,-140,-80,-128,-71,-127,-67,-125,-58,-117,-54,-109,-52,-106,-51,-103,-47,-92,-45,-90,-45,-88,-44,-88,-39,-93,-34,-98,-33,-95,-32,-96,-36,-97,-34,-97,-36,-88,-37,-84,-38,-83,-33,-80,-36,-81,-31,-84,-39,-87,-32,-87,-35,-86,-30,-90,-33,-91,-38,-88,-37,-83,-36,-84,-35,-84,-35,-82,-29,-85,-34,-86,-36,-90,-34,-95,-35,-87,-37,-90,-34,-92,-31,-87,-34,-89,-37,-92,-34,-90,-38,-91,-37,-93,-37,-95,-38,-95,-36,-98,-37,-95,-41,-92,-39,-87,-34,-85,-41,-85,-38,-90,-39,-88,-38,-93,-36,-96,-38,-94,-39,-92,-41,-90,-41,-93,-39,-85,-41,-87,-45,-88,-44,-89,-44,-89,-42,-90,-48,-92,-45,-92,-47,-92,-46,-90,-46,-92,-44,-90,-45,-87,-45,-86,-38,-91,-43,-92,-53,-91,-47,-92,-48,-93,-46,-94,-50,-92,-50,-92,-41,-90,-45,-90,-44,-89,-44,-88,-47,-87,-43,-89,-49,-88,-43,-80,-48,-80,-39,-75,-38,-69,-36,-61,-30,-61,-22,-58,-18,-57,-19,-56,-24,-56,-29,-64,-32,-66,-36,-65,-45,-64,-48,-68,-53,-73,-56,-71,-57,-72,-54,-78,-49,-82,-39,-90,-43,-96,-48,-96,-44,-98,-48,-96,-51,-93,-54,-94,-44,-89,-45,-71,-40,-60,-31,-44,-23,2,-21,66,-32,118,-35,143,-59,169,-137,153,-227,18,-302,-168,-349,-294,-396,-352,-443,-360,-475,-330,-453,-280,-388,-219,-322,-176,-257,-139,-192,-125,-139,-116,-99,-108,-72,-99,-61,-95,-51,-96,-46,-94,-44,-95,-43,-90,-36,-95,-39,-93,-38,-95,-35,-96,-32,-92,-34,-95,-32,-94,-26,-93,-28,-94,-31,-96,-32,-99,-27,-101,-26,-101,-23,-104,-33,-103,-25,-106,-30,-107,-28,-104,-25,-107,-30,-108,-25,-112,-26,-111,-27,-121,-34,-122,-32,-122,-30,-125,-29,-131,-28,-134,-31,-136,-32,-139,-35,-141,-38,-150,-33,-156,-40,-164,-42,-171,-42,-171,-50,-178,-53,-180,-52,-184,-56,-184,-63,-190,-63,-190,-64,-196,-67,-201,-67,-206,-68,-214,-70,-219,-73,-215,-74,-216,-82,-214,-80,-204,-83,-193,-87,-192,-92,-182,-91,-172,-90,-163,-89,-155,-94,-143,-90,-132,-84,-120,-78,-109,-72,-93,-72,-84,-68,-76,-63,-70,-66,-66,-60,-64,-55,-64,-51,-59,-48,-60,-43,-58,-41,-54,-37,-53,-35,-51,-32,-49,-29,-48,-33,-46,-29,-49,-27,-55,-27,-49,-28,-51,-27,-50,-24,-53,-21,-50,-23,-48,-20,-47,-17,-43,-23,-42,-18,-48,-16,-52,-19,-48,-21,-53,-21,-50,-18,-50,-20,-56,-25,-54,-23,-50,-21,-50,-23,-53,-22,-55,-23,-53,-28,-55,-32,-56,-34,-58,-35,-59,-31,-60,-34,-55,-36,-57,-32,-58,-36,-57,-35,-55,-37,-58,-34,-65,-32,-68,-32,-64,-34,-63,-40,-67,-38,-65,-36,-60,-39,-62,-40,-64,-35,-56,-37,-62,-42,-68,-41,-64,-38,-64,-40,-68,-39,-66,-39,-64,-44,-62,-39,-60,-40,-60,-41,-57,-36,-59,-40,-62,-41,-65,-46,-64,-44,-68,-41,-70,-45,-63,-44,-66,-49,-62,-46,-58,-43,-59,-40,-58,-40,-58,-41,-64,-43,-64,-43,-65,-40,-69,-41,-64,-41,-60,-42,-58,-43,-50,-37
-42,-41,-35,-31,-30,-25,-31,-18,-34,-17,-36,-22,-32,-20,-30,-24,-33,-25,-33,-29,-29,-45,-29,-49,-35,-58,-36,-55,-45,-56,-54,-60,-58,-55,-66,-50,-71,-47,-72,-44,-73,-45,-72,-51,-71,-52,-67,-55,-66,-49,-68,-52,-63,-45,-45,-39,-27,-30,16,-23,84,-36,150,-38,184,-64,213,-148,210,-252,108,-329,-92,-381,-245,-420,-316,-461,-325,-506,-316,-506,-251,-436,-188,-358,-139,-277,-103,-201,-79,-140,-72,-98,-65,-74,-70,-57,-69,-50,-71,-45,-69,-40,-69,-38,-70,-37,-68,-37,-64,-29,-63,-34,-63,-37,-64,-30,-67,-32,-63,-28,-71,-28,-70,-29,-71,-32,-71,-28,-70,-32,-68,-28,-68,-31,-68,-32,-64,-25,-69,-22,-72,-18,-78,-15,-77,-22,-81,-20,-81,-22,-84,-23,-87,-24,-85,-23,-88,-23,-91,-21,-95,-16,-103,-17,-104,-19,-108,-22,-121,-24,-117,-24,-125,-30,-127,-34,-128,-34,-128,-38,-136,-38,-142,-38,-152,-44,-151,-45,-161,-48,-160,-48,-169,-55,-168,-58,-170,-61,-169,-60,-168,-63,-167,-66,-165,-70,-160,-68,-159,-69,-156,-68,-147,-71,-130,-71,-117,-73,-105,-68,-93,-67,-77,-64,-62,-63,-50,-57,-42,-52,-30,-53,-27,-42,-16,-40,-16,-38,-9,-40,-5,-36,-1,-34,0,-32,5,-29,5,-24,6,-19,8,-20,9,-20,4,-19,6,-19,5,-15,3,-19,4,-17,10,-8,12,-9,13,-9,10,-8,12,-12,9,-12,5,-12,7,-11,1,-13,7,-18,4,-18,5,-14,7,-18,11,-19,9,-19,1,-19,1,-21,3,-19,1,-17,0,-17,-1,-24,-1,-27,1,-30,6,-25,7,-21,7,-22,6,-22,0,-28,-1,-24,0,-24,-4,-23,0,-27,-3,-29,-2,-27,3,-32,7,-28,1,-29,2,-34,3,-39,-1,-35,0,-29,-2,-32,4,-29,-2,-30,0,-27,4,-25,7,-27,7,-28,8,-28,4,-31,0,-31,4,-25,2,-28,5,-30,3,-31,0,-32,4,-30,10,-29,9,-30,11,-26,8,-24,6,-26,1,-29,4,-26,2,-27,0,-29,5,-31,8,-28,8,-31,13,-29,16,-26,20,-29,23,-24,24,-20,29,-14,30,-11,33,-4,37,0,40,-4,48,-20,43,-16,36,-19,42,-26,39,-32,31,-35,25,-38,23,-39,22,-41,15,-36,14,-27,8,-28,4,-29,5,-28,3,-35,0,-30,0,-34,2,-39,0,-32,13,-29,30,-14,43,-1,91,-4,161,-12,224,-12,258,-44,287,-122,292,-227,192,-310,-5,-370,-163,-404,-241,-445,-256,-472,-229,-451,-179,-398,-123,-333,-80,-254,-44,-187,-23,-128,-13,-86,-7,-55,-8,-38,-3,-22,-2,-24,2,-20,6,-12,5,-15,10,-10,12,-14,12,-11,8,-11,3,-8,1,-4,3,-8,4,-7,2,-3,7,-7,5,-10,8,-5,9,-1,9,3,7,4,4,1,1,-2,2,1,-1,3,-1,3,2,2,0,1,-5,3,-6,3,-10,4,-15,5,-20,0,-24,0,-29,0,-33,-4,-39,-2,-37,-2,-42,-7,-42,-6,-52,-6,-55,-6,-63,-10,-69,-10,-70,-15,-76,-23,-81,-18,-88,-17,-93,-16,-89,-28,-92,-33,-92,-37,-95,-37,-94,-39,-95,-40,-91,-37,-91,-44,-82,-44,-73,-47,-61,-42,-48,-46,-31,-42,-22,-42,-7,-40,2,-35,11,-34,20,-25,34,-20,41,-13,49,-7,59,-5,68,-2,74,-1,73,7,77,16,75,23,75,24,79,26,76,27,79,34,78,37,79,33,85,32,86,32,87,30,84,34,84,35,85,31,83,38,78,36,80,27,81,31,83,33,82,34,89,39,87,38,90,39,89,36,88,35,84,31,80,33,79,31,79,31,79,27,87,29,88,29,88,36,85,31,87,32,85,35,79,36,75,31,81,33,76,29,76,29,75,29,83,33,84,32,88,30,81,31,81,28,81,31,76,28,71,32,75,25,73,24,80,24,78,23,79,25,84,29,80,31,79,29,82,23,79,28,82,27,78,23,77,23,81,25,84,27,85,26,85,32,81,24,81,25,83,29,81,27,74,25,71,34,76,27,74,26,81,28,80,31,81,37,81,29,80,28,82,28,82,31,89,34,91,33,95,37,101,42,101,46,107,50,111,47,112,49,118,41,110,42,105,33,107,30,106,17,101,14,96,15,90,9,88,12,81,28,76,27,73,34,74,31,73,19,67,25,70,19,66,22,71,20,67,19,76,25,89,40,105,50,142,52,203,39,265,38,299,17,333,-52,347,-140,253,-223,60,-287,-102,-328,-191,-362,-199,-391,-177,-380,-140,-329,-82,-265,-22,-200,11,-128,25,-74,39,-29,47,-1,51,15,52,21,55,31,57,28,56,30,56,31,50,33,49,31,43,26,47,29,45,32,46,31,41,27,51,35,52,37,56,38,51,30,49,31,45,31,42,35,38,38,32,39,34,38,34,37,34,36,33,34,31,37,30,41,28,35,25,34,20,33,14,37,3,31,1,33,1,32,-5,27,-4,29,-11,29,-15,29,-25,22,-30,19
-39,15,-44,17,-49,14,-50,17,-63,12,-60,6,-63,2,-70,2,-76,0,-80,-2,-84,-6,-86,-11,-91,-14,-90,-15,-89,-14,-87,-21,-83,-18,-66,-22,-56,-25,-47,-30,-41,-22,-31,-21,-28,-23,-14,-19,-4,-14,10,-9,12,-7,21,0,25,2,38,7,40,14,44,16,44,24,47,29,44,31,46,32,43,39,31,44,29,38,31,38,32,44,33,45,33,47,34,44,28,42,23,43,23,45,24,41,26,39,26,41,26,45,22,40,20,43,23,39,26,42,22,43,19,44,18,39,17,39,14,43,14,40,18,41,12,38,16,41,15,33,16,36,18,36,8,37,0,35,1,31,1,33,8,35,12,33,12,37,6,29,7,34,4,30,1,31,1,26,6,31,3,24,3,30,8,33,3,27,7,27,8,28,9,24,7,26,5,26,3,27,1,29,-1,31,2,27,0,30,-1,32,0,31,3,28,6,27,12,29,10,28,5,23,-6,31,0,25,5,20,4,21,2,17,-2,22,1,21,3,24,2,26,2,21,7,25,7,28,3,23,2,25,11,29,13,30,15,32,25,38,30,42,33,46,37,37,36,34,33,33,25,30,22,28,27,18,23,16,19,12,12,4,11,5,7,4,0,16,0,14,-8,16,-16,16,-14,17,-16,13,-15,12,-9,15,0,16,2,21,14,20,22,32,47,49,90,44,157,44,217,34,247,13,283,-52,260,-118,118,-187,-62,-240,-195,-278,-264,-307,-263,-329,-239,-320,-206,-280,-157,-231,-116,-176,-83,-120,-67,-74,-52,-34,-41,-8,-37,3,-28,8,-23,14,-28,16,-30,17,-35,22,-42,19,-41,19,-44,18,-40,19,-34,19,-39,18,-35,22,-31,23,-31,24,-33,25,-33,15,-38,22,-40,20,-47,22,-48,17,-38,19,-43,20,-45,21,-52,17,-50,15,-54,17,-56,12,-62,17,-63,14,-67,11,-70,10,-76,10,-80,9,-77,18,-84,10,-87,9,-98,5,-109,1,-118,2,-120,3,-125,-4,-127,-4,-137,-9,-141,-20,-137,-10,-141,-13,-150,-18,-153,-20,-157,-24,-160,-26,-158,-28,-159,-30,-164,-32,-158,-36,-148,-32,-140,-32,-130,-26,-122,-21,-109,-17,-91,-19,-74,-23,-69,-23,-66,-12,-52,-15,-46,-9,-39,-2,-34,4,-31,12,-26,17,-18,14,-26,12,-30,4,-36,7,-34,12,-36,11,-37,12,-36,3,-34,3,-32,2,-28,0,-30,0,-31,-3,-34,-4,-34,-4,-38,-6,-33,-2,-36,0,-38,0,-37,-9,-33,-6,-33,-2,-33,-8,-34,-4,-38,-11,-40,-13,-44,-13,-46,-8,-44,-4,-43,-8,-45,-15,-44,-11,-45,-10,-40,-10,-45,-7,-48,-8,-43,-7,-46,-12,-44,-18,-44,-13,-34,-2,-31,1,-11,12,33,2,99,-6,158,-9,190,-40,220,-112,190,-186,40,-255,-156,-309,-295,-350,-344,-392,-315,-419,-260,-395,-192,-317,-136,-226,-90,-155,-69,-93,-56,-49,-44,-22,-36,-2,-39,6,-35,10,-29,2,-33,8,-35,13,-35,13,-41,14,-37,16,-40,14,-39,15,-40,16,-42,18,-42,14,-42,3,-43,0,-46,0,-53,-2,-61,-2,-64,-1,-68,-5,-66,-14,-68,-14,-69,-14,-70,-17,-67,-12,-65,-6,-72,-13,-79,-12,-85,-12,-89,-15,-93,-15,-100,-11,-103,-16,-110,-15,-108,-15,-106,-16,-112,-21,-113,-22,-115,-28,-122,-24,-132,-24,-133,-27,-142,-30,-146,-34,-146,-34,-151,-34,-149,-38,-151,-43,-139,-42,-144,-45,-138,-45,-129,-43,-122,-45,-101,-39,-88,-36,-70,-29,-56,-27,-36,-23,-18,-18,-7,-13,0,-1,2,5,-1,7,-2,6,0,5,2,5,3,4,6,13,3,16,13,20,12,11,0,17,-2,8,-8,-2,-10,-2,-18,-1,-21,1,-20,-8,-24,-8,-27,-9,-28,-5,-30,-9,-30,-9,-30,-18,-34,-24,-40,-21,-40,-20,-44,-23,-40,-22,-42,-22,-42,-24,-41,-27,-39,-25,-37,-23,-44,-20,-42,-23,-45,-24,-46,-22,-46,-26,-44,-24,-49,-26,-42,-24,-41,-22,-40,-25,-45,-26,-43,-20,-47,-22,-54,-25,-60,-27,-68,-27,-68,-30,-68,-29,-60,-31,-55,-28,-50,-28,-34,-14,-23,0,16,4,82,-8,146,-12,193,-35,229,-122,236,-215,128,-292,-70,-346,-236,-389,-299,-434,-301,-467,-262,-446,-206,-390,-142,-295,-92,-201,-62,-129,-48,-76,-34,-36,-31,-18,-28,-12,-29,-8,-31,-12,-28,-10,-32,-13,-33,-7,-38,-10,-44,-9,-42,-9,-42,-12,-37,-14,-38,-13,-40,-14,-42,-12,-44,-11,-45,-6,-46,-10,-49,-11,-53,-3,-53,-7,-54,-8,-52,-5,-54,-8,-53,-9,-57,0,-63,-4,-62,-4,-66,-5,-74,-8,-79,-9,-79,-9,-85,-9,-84,-12,-92,-6,-94,-12,-97,-11,-107,-8,-112,-12,-121,-18,-128,-16,-138,-16,-146,-20,-153,-18,-160,-19,-160,-18,-170,-24,-172,-21,-175,-27,-184,-26,-187,-30,-188,-34,-170,-40,-150,-32,-138,-28,-120,-20,-97,-8,-82,1,-76,7,-57,9,-44,15,-37,17,-29,18,-25,13,-18,7,-11,11,-7,13,-4,13,-1,10
5,12,-1,8,1,7,-1,6,-8,11,-9,5,-9,4,-8,5,-10,4,-6,8,-4,7,-5,6,-5,11,-9,8,-12,5,-14,3,-16,6,-12,5,-12,4,-15,6,-14,2,-13,1,-9,2,-10,0,-10,-5,-18,-4,-17,-4,-20,-6,-19,-2,-21,-4,-20,-5,-11,-5,0,-2,2,2,4,0,7,5,5,16,25,6,69,-15,116,-21,151,-63,178,-183,198,-299,114,-386,-74,-434,-240,-475,-308,-520,-293,-544,-221,-509,-149,-422,-89,-303,-45,-188,-20,-104,-2,-47,7,-11,7,2,6,9,8,7,3,5,0,6,-6,10,-7,8,-8,8,-6,7,-7,12,-6,9,-2,9,1,8,2,5,-2,14,-7,14,-11,9,-10,13,-9,13,-14,17,-17,12,-13,14,-14,14,-15,21,-16,17,-20,21,-27,14,-28,16,-32,20,-36,16,-41,17,-47,16,-46,17,-49,17,-51,17,-57,15,-63,14,-72,15,-78,9,-84,12,-93,6,-98,7,-106,5,-114,5,-120,3,-125,1,-129,3,-134,3,-134,0,-138,3,-137,9,-146,14,-141,10,-134,6,-121,6,-87,4,-54,8,-30,24,-7,39,5,52,11,55,24,58,31,61,34,59,36,50,42,48,48,46,47,44,51,47,44,44,42,43,45,31,33,28,32,29,31,30,34,29,33,33,32,34,37,30,31,26,36,26,33,25,30,26,23,26,20,21,19,25,21,25,22,21,20,24,21,19,21,18,22,19,22,18,19,12,14,20,12,19,13,18,13,26,13,20,15,23,22,23,16,33,28,35,71,15,131,0,181,-26,212,-95,233,-196,181,-278,-12,-353,-205,-398,-306,-433,-325,-473,-294,-475,-237,-426,-156,-344,-88,-247,-37,-155,-2,-83,10,-26,17,12,16,34,21,38,27,41,24,48,21,42,22,44,19,42,14,44,10,39,8,37,4,41,8,36,3,34,4,32,3,35,0,32,2,26,2,33,-1,32,-7,33,-8,28,-5,34,-12,31,-11,29,-18,29,-17,33,-17,27,-21,29,-27,30,-30,30,-38,29,-42,29,-42,28,-48,24,-55,28,-56,23,-57,21,-60,18,-66,20,-69,23,-73,17,-80,21,-87,18,-90,17,-95,13,-98,13,-104,9,-105,6,-102,3,-102,3,-100,9,-98,3,-96,6,-97,11,-95,10,-87,5,-72,7,-44,11,-8,14,28,22,44,41,52,58,57,69,58,70,56,73,56,71,59,65,53,54,53,50,54,55,54,54,49,56,48,52,44,45,39,41,36,39,30,40,31,33,28,36,26,36,24,33,25,35,25,34,25,32,24,32,23,29,19,28,15,29,18,31,19,25,25,31,39,37,52,45,80,50,127,31,166,21,203,2,246,-105,269,-238,206,-340,15,-403,-180,-443,-279,-472,-278,-501,-223,-487,-166,-419,-108,-315,-69,-202,-51,-119,-41,-55,-37,-13,-26,4,-13,13,-9,18,-5,36,3,45,4,42,6,50,11,52,10,50,12,56,14,60,14,64,14,63,15,70,19,71,16,69,16,61,19,59,9,52,6,52,-1,46,-6,48,-8,46,-12,51,-13,46,-16,46,-16,41,-24,38,-24,42,-28,41,-34,41,-39,37,-42,33,-46,39,-51,34,-61,33,-61,31,-62,35,-62,38,-67,36,-69,35,-69,37,-73,35,-81,34,-83,35,-90,34,-88,31,-87,37,-76,37,-73,41,-73,37,-68,41,-66,44,-57,37,-52,41,-39,39,-16,35,-1,43,12,58,24,67,32,70,38,75,43,81,43,84,40,87,41,78,41,75,43,75,46,78,48,78,52,79,50,78,49,81,47,83,45,82,40,82,35,72,33,72,32,67,27,67,25,62,27,55,27,55,26,56,24,58,19,53,18,52,14,47,11,46,11,38,11,36,8,36,12,31,11,27,13,34,10,34,8,34,6,36,0,39,2,31,7,28,3,32,0,31,5,33,3,28,0,33,-8,33,-10,35,-14,30,-19,31,-22,29,-16,27,-2,31,12,38,27,60,65,68,129,57,212,50,262,27,308,-30,304,-103,178,-182,-28,-257,-185,-306,-255,-338,-256,-357,-235,-344,-185,-285,-117,-215,-63,-149,-24,-86,-12,-33,-5,10,2,35,4,34,5,37,1,43,-4,50,1,48,1,48,0,49,-2,52,-8,53,-15,52,-19,51,-14,51,-17,49,-18,50,-19,53,-19,54,-26,53,-28,51,-42,47,-46,48,-44,48,-47,50,-45,52,-51,48,-54,46,-58,48,-54,49,-56,52,-63,51,-67,50,-70,44,-82,45,-88,45,-91,43,-100,42,-97,40,-95,40,-94,46,-98,46,-96,45,-93,43,-93,37,-84,35,-67,41,-62,51,-63,60,-64,58,-60,51,-56,48,-50,49,-41,50,-31,51,-26,50,-16,53,-10,57,-2,60,4,58,11,63,19,57,25,58,30,59,37,55,38,59,44,62,38,63,34,70,30,71,31,76,28,72,28,74,28,67,31,72,31,72,25,75,17,69,14,72,10,70,4,63,3,63
